time,x,x_dot,theta,theta_dot,u,x_ref,theta_ref
0.0,1.3802991711916062,-0.06780538176617862,0.023097818946276855,-0.026384011667145754,9.263308584067461,0.0,0.0
0.02004008016032064,1.382551089291044,0.1125959049718957,0.017298641517940076,-0.28995887141683885,6.823906137005851,0.0,0.0
0.04008016032064128,1.3874608862323625,0.24548984706592458,0.007617379567692999,-0.4840630975123539,6.128235313035704,0.0,0.0
0.06012024048096192,1.3947599216925444,0.36495177300909315,-0.005600635955937055,-0.6609007761815027,3.774377345559717,0.0,0.0
0.08016032064128256,1.403533371786993,0.43867250472242725,-0.021061768364154777,-0.7730566204108862,4.123570908302941,0.0,0.0
0.1002004008016032,1.4139216840988948,0.5194156155950993,-0.03906690089807552,-0.9002566266960368,1.016272522366791,0.0,0.0
0.12024048096192384,1.4247170960469118,0.5397705974008498,-0.05791134733014623,-0.9422223216035357,-2.464179385336855,0.0,0.0
0.1402805611222445,1.4345667125197226,0.49248082364054524,-0.07568047932888941,-0.8884565999371591,1.1810553959092207,0.0,0.0
0.16032064128256512,1.4448974521036007,0.5165369791938994,-0.09461307962247661,-0.9466300146793605,-5.353732102617171,0.0,0.0
0.18036072144288576,1.4531656781586646,0.4134113027531975,-0.11102281851240414,-0.8204869444963767,0.4842075212568684,0.0,0.0
0.2004008016032064,1.4616527652598088,0.4243543550572094,-0.12840969096257593,-0.869343622508589,-2.400580734128728,0.0,0.0
0.22044088176352705,1.4692386791586658,0.3792956949428527,-0.1452092756618893,-0.8399792349656674,-1.5646208911186295,0.0,0.0
0.24048096192384769,1.476253958569526,0.35076397054301023,-0.16201274763472595,-0.8401735986418333,-2.1351027774531337,0.0,0.0
0.2605210420841683,1.4824809738015328,0.31135076160034114,-0.1785979166521721,-0.8292584508723073,-2.9419454662833666,0.0,0.0
0.280561122244489,1.4876102260171358,0.25646261078015237,-0.1946075746015225,-0.8004828974675214,-3.8887583008079036,0.0,0.0
0.3006012024048096,1.4912779461806012,0.18338600817326856,-0.20960403375352818,-0.7498229576002836,-4.61336555982191,0.0,0.0
0.32064128256513025,1.4932069685422453,0.09645111808220569,-0.22327382367898577,-0.6834894962728799,-5.121065693316223,0.0,0.0
0.3406813627254509,1.4932044167992353,-0.00012758715050277536,-0.23542109235304134,-0.6073634337027787,-5.608968266605707,0.0,0.0
0.3607214428857715,1.4910848572739848,-0.1059779762625306,-0.2458530386890465,-0.521597316800258,-6.001331772326144,0.0,0.0
0.3807615230460922,1.486699608367819,-0.21926244530828304,-0.2544209064617926,-0.42839338863730564,-6.302821864686235,0.0,0.0
0.4008016032064128,1.4799347748135032,-0.3382416777157846,-0.26101543946438605,-0.32972665012967095,-6.500102996744459,0.0,0.0
0.42084168336673344,1.470716297040071,-0.4609238886716146,-0.2655728454854432,-0.22787030105285824,-3.329342443374086,0.0,0.0
0.4408817635270541,1.460277099925166,-0.5219598557452414,-0.2699067825598785,-0.21669685372176403,-3.7712838549733565,0.0,0.0
0.4609218436873747,1.4484468990580144,-0.5915100433575746,-0.27379788371706376,-0.19455505785926386,-4.1874718806801585,0.0,0.0
0.48096192384769537,1.4350653480697118,-0.6690775494151363,-0.2770389374775908,-0.1620526880263506,-4.567152381469225,0.0,0.0
0.501002004008016,1.419986129662662,-0.7539609203524956,-0.27943934592974656,-0.12002042260778958,-4.8947123454921275,0.0,0.0
0.5210420841683366,1.4030829283053805,-0.8451600678640654,-0.28083234011571245,-0.06964970929829573,-5.16242793235512,0.0,0.0
0.5410821643286573,1.384252343438383,-0.9415292433498712,-0.2810779080196007,-0.01227839519441197,-5.385629625658045,0.0,0.0
0.561122244488978,1.3634078661009241,-1.0422238668729447,-0.28005303956475447,0.051243422742311154,-5.542316892059454,0.0,0.0
0.5811623246492986,1.3404883520471684,-1.1459757026877821,-0.2776630029242211,0.11950183202666911,-5.65305699138811,0.0,0.0
0.6012024048096192,1.3154499928863594,-1.2519179580404471,-0.2738290933715216,0.19169547763497252,-5.707974569215568,0.0,0.0
0.6212424849699398,1.2882701148332645,-1.3589939026547426,-0.2684935941189183,0.26677496263016565,-6.09317015807641,0.0,0.0
0.6412825651302605,1.2587972682575133,-1.47364232878756,-0.26140281150550226,0.35453913067080184,-5.9310711751891345,0.0,0.0
0.6613226452905812,1.2270917936264922,-1.5852737315510486,-0.2525975307722186,0.4402640366641833,-5.70087438232561,0.0,0.0
0.6813627254509018,1.1932399100787188,-1.6925941773886783,-0.24214536454365274,0.5226083114282926,-5.443790914050293,0.0,0.0
0.7014028056112224,1.1573377857756384,-1.7951062151540187,-0.23011848403428656,0.6013440254683091,-5.156241207061319,0.0,0.0
0.721442885771543,1.1194929992082032,-1.8922393283717611,-0.21659654539144424,0.6760969321421152,-4.847488515910077,0.0,0.0
0.7414829659318637,1.0798210112072146,-1.9835994000494246,-0.20166238019349403,0.746708259897511,-4.551073661200119,0.0,0.0
0.7615230460921844,1.0384321825382576,-2.0694414334478473,-0.18538373605754357,0.8139322067975225,-4.273826791419946,0.0,0.0
0.781563126252505,0.9954291516074726,-2.1501515465392536,-0.16780990902334902,0.8786913517097275,-3.881993303211504,0.0,0.0
0.8016032064128256,0.950958944973,-2.223510331723628,-0.1490490723370058,0.9380418343171615,-3.493566242861357,0.0,0.0
0.8216432865731462,0.9051671323106221,-2.289590633118899,-0.1292016523701666,0.9923709983419593,-4.98465287769795,0.0,0.0
0.8416833667334669,0.8574666425350858,-2.3850244887768177,-0.10727397377106201,1.0963839299552285,-4.035917442114645,0.0,0.0
0.8617234468937875,0.8082205303538107,-2.462305609063753,-0.08367179713633226,1.1801088317364876,-3.159082749070362,0.0,0.0
0.8817635270541082,0.7577638807181986,-2.522832481780609,-0.05875240637350776,1.2459695381412248,-2.4914069810258908,0.0,0.0
0.9018036072144289,0.7063502836856258,-2.5706798516286398,-0.032746016038809236,1.3003195167349262,-1.866061561512549,0.0,0.0
0.9218436873747494,0.6542168566115383,-2.606671353704376,-0.0058535254737360105,1.3446245282536613,-0.9204750335627349,0.0,0.0
0.9418837675350701,0.6017257083874101,-2.624557411206408,0.021540805440319076,1.3697165457027543,0.24445795303479667,0.0,0.0
0.9619238476953907,0.5493245669468011,-2.6200570720304497,0.048926812843912496,1.3693003701796709,1.732367368121086,0.0,0.0
0.9819639278557114,0.49758711166142383,-2.586872764268862,0.07560649868641688,1.3339842921252192,2.4989454578613737,0.0,0.0
1.002004008016032,0.44680544476665174,-2.539083344738606,0.1013013560041896,1.2847428658886362,3.190846628799748,0.0,0.0
1.0220440881763526,0.39724243640404533,-2.4781504181303218,0.12577299512606185,1.2235819560936123,4.911543911879637,0.0,0.0
1.0420841683366733,0.34956186667103034,-2.384028486650749,0.14818216638706735,1.1204585630502748,5.37214082512505,0.0,0.0
1.062124248496994,0.30393613216434545,-2.281286725334244,0.1684123507186971,1.0115092165814872,5.6328017800230015,0.0,0.0
1.0821643286573146,0.2604600280974501,-2.1738052033447657,0.18645066851179048,0.9019158896546698,5.821141157689149,0.0,0.0
1.1022044088176353,0.21920064366514808,-2.062969221615102,0.20231288481419568,0.7931108151202603,5.9497115863921834,0.0,0.0
1.122244488977956,0.180202361567317,-1.9499141048915536,0.21603546070459537,0.6861287945199843,6.022432210901677,0.0,0.0
1.1422845691382766,0.14348846815494826,-1.8356946706184376,0.22767283841771105,0.5818688856557843,6.043579929324594,0.0,0.0
1.1623246492985972,0.10906287621127408,-1.7212795971837083,0.23729478126328885,0.48109714227889,6.016366824789089,0.0,0.0
1.1823647294589177,0.07691140725049422,-1.607573448038993,0.2449845728707637,0.38448958037374303,5.945265667526912,0.0,0.0
1.2024048096192383,0.04700353922005733,-1.4953934015218446,0.25083674207912254,0.2926084604179418,5.835916217754988,0.0,0.0
1.222444889779559,0.019294585300847242,-1.3854476959605044,0.2549543483815188,0.20588031511981475,4.65711297549163,0.0,0.0
1.2424849699398797,-0.006674876841469099,-1.298473107115817,0.25803065518370955,0.1538153401095364,4.732601999883646,0.0,0.0
1.2625250501002003,-0.030876575133884795,-1.2100849146207848,0.2600442049698826,0.1006774893086534,4.720958140059196,0.0,0.0
1.282565130260521,-0.05331572535445454,-1.1219575110284876,0.2610153579454434,0.048557648778039884,4.684558533208014,0.0,0.0
1.3026052104208417,-0.07400680379562684,-1.0345539220586148,0.26097125514208835,-0.0022051401677528823,4.618818732063958,0.0,0.0
1.3226452905811623,-0.0929753376540966,-0.9484266929234879,0.2599485875076309,-0.05113338172287322,4.535366002948686,0.0,0.0
1.342685370741483,-0.1102534059461624,-0.8639034146032897,0.2579873409990327,-0.09806232542990972,4.4231918330942435,0.0,0.0
1.3627254509018036,-0.1258839344256884,-0.7815264239763008,0.25513732108466375,-0.14250099571844796,4.295370512872243,0.0,0.0
1.3827655310621243,-0.13991564300681053,-0.7015854290561061,0.25145121214757177,-0.18430544685459813,4.146700470700794,0.0,0.0
1.4028056112224447,-0.152405092710136,-0.6244724851662736,0.24698795280085645,-0.22316296733576596,3.981748215636324,0.0,0.0
1.4228456913827654,-0.163414941392459,-0.5504924341161501,0.24181065834637638,-0.2588647227240025,4.351366992234575,0.0,0.0
1.442885771543086,-0.1727999145341726,-0.4692486570856804,0.23567559108253597,-0.306753363192021,4.025957530131503,0.0,0.0
1.4629258517034067,-0.18068448671380438,-0.39422860898158896,0.2287256252158211,-0.3474982933357432,3.709996374475282,0.0,0.0
1.4829659318637274,-0.1871892726629082,-0.3252392974551905,0.2210935195484381,-0.38160528336915095,3.397596611990752,0.0,0.0
1.503006012024048,-0.19243336643088596,-0.262204688398889,0.21290621816334812,-0.40936506925449806,3.1004942324241216,0.0,0.0
1.5230460921843687,-0.19652982165290517,-0.20482276110096048,0.20427905489983625,-0.43135816317559345,2.8214206084165285,0.0,0.0
1.5430861723446894,-0.19958462153706866,-0.1527399942081747,0.1953149313680977,-0.4482061765869285,2.551693303699503,0.0,0.0
1.56312625250501,-0.20170008207685655,-0.10577302698939445,0.18610990330997917,-0.46025140290592587,2.288007154997041,0.0,0.0
1.5831663326653307,-0.20297616194220428,-0.06380399326738669,0.17675565960904066,-0.46771218504692497,2.0344324190560816,0.0,0.0
1.6032064128256511,-0.20350889932553837,-0.026636869166704227,0.16733773450044104,-0.47089625542998176,1.7944295869403413,0.0,0.0
1.6232464929859718,-0.20338908138533807,0.0059908970100149075,0.15793400042961678,-0.4701867035412133,1.397824039040257,0.0,0.0
1.6432865731462925,-0.20276854403482153,0.031026867525826257,0.14871321673459628,-0.4610391847510243,1.2202731618261429,0.0,0.0
1.6633266533066131,-0.2017139076480746,0.05273181933734686,0.13971954372737452,-0.44968365036108837,1.0529406963394072,0.0,0.0
1.6833667334669338,-0.2002878931805622,0.0713007233756198,0.13099294577798634,-0.43632989746940937,0.9100598604889265,0.0,0.0
1.7034068136272544,-0.1985437806502737,0.08720562651442518,0.12256114199441648,-0.421590189178493,0.7761412441298156,0.0,0.0
1.723446893787575,-0.19653144655544114,0.10061670474162783,0.11444868092860484,-0.405623053290582,0.6526556275937612,0.0,0.0
1.7434869739478958,-0.19429679413640594,0.11173262095175934,0.10667620161423623,-0.38862396571843066,0.5583748755530537,0.0,0.0
1.7635270541082164,-0.1918744370298049,0.12111785533005283,0.09924961666512808,-0.37132924745540735,0.442011965151732,0.0,0.0
1.783567134268537,-0.18930769457352373,0.12833712281405876,0.09218992032413463,-0.3529848170496721,0.3670349017470295,0.0,0.0
1.8036072144288577,-0.1866238498695048,0.13419223520094636,0.08549639687006322,-0.3346761727035709,0.1993683277008075,0.0,0.0
1.8236472945891782,-0.18388643557551826,0.13687071469932754,0.07922465550793616,-0.31358706810635306,-0.9427913195352827,0.0,0.0
1.8436873747494988,-0.18153920629765338,0.11736146389324363,0.07400105459729618,-0.261180045531999,-0.8788958932037838,0.0,0.0
1.8637274549098195,-0.1795558353607312,0.09916854684610908,0.06975586513721556,-0.21225947300403114,-0.6631786159573243,0.0,0.0
1.8837675350701402,-0.17785102360106933,0.0852405879830927,0.06633681387467982,-0.17095256312678644,-0.5615088152305177,0.0,0.0
1.9038076152304608,-0.1763841718139679,0.07334258935507156,0.06366322602110658,-0.13367939267866252,-0.3279677634874342,0.0,0.0
1.9238476953907815,-0.17506343514051864,0.06603683367246305,0.061582083508886686,-0.10405712561099449,-0.07119373067402796,0.0,0.0
1.9438877755511021,-0.1737880616617608,0.06376867393789162,0.059930462178046616,-0.08258106654200356,0.3757397874443449,0.0,0.0
1.9639278557114228,-0.17238322789861937,0.07024168815707216,0.05843708036021447,-0.07466909089160714,0.24432062792126252,0.0,0.0
1.9839679358717435,-0.1708997792347513,0.07417243319340353,0.057169251010470906,-0.06339146748717818,0.3708445527249717,0.0,0.0
2.004008016032064,-0.16928799465796937,0.08058922883909717,0.05604511459526052,-0.05620682076051913,0.4101574700417322,0.0,0.0
2.024048096192385,-0.16753221651476263,0.08778890716033698,0.055034628709767205,-0.05052429427466574,0.6136800142142069,0.0,0.0
2.0440881763527052,-0.16555275431056227,0.09897311021001845,0.05401257224449466,-0.05110282326362708,0.6235092252827331,0.0,0.0
2.064128256513026,-0.16334548026119766,0.11036370246823042,0.052966750724784115,-0.05229107598552744,0.6373107728368729,0.0,0.0
2.0841683366733466,-0.16090470981686217,0.12203852221677532,0.051882498707989354,-0.054212600839738175,0.6461614201071666,0.0,0.0
2.1042084168336674,-0.15822667879780514,0.13390155095285203,0.05074779849116667,-0.056735010841134276,0.6522273694363352,0.0,0.0
2.124248496993988,-0.1553086948546262,0.14589919715894667,0.049551939475742685,-0.059792950771199206,0.6511704681980673,0.0,0.0
2.1442885771543083,-0.1521508269803718,0.1578933937127203,0.048287984972879255,-0.06319772514317137,0.6405415517940336,0.0,0.0
2.164328657314629,-0.14875685917522907,0.16969839025713693,0.04695416007521217,-0.06669124488335429,0.6297727126041215,0.0,0.0
2.1843687374749496,-0.14513061001350533,0.1813124580861869,0.04554833117974885,-0.07029144477316582,0.621968476180391,0.0,0.0
2.2044088176352705,-0.14127472074975395,0.19279446318756882,0.044066178678949054,-0.07410762503998994,0.6100149879045944,0.0,0.0
2.224448897795591,-0.13719342965222428,0.2040645548764829,0.04250532611182655,-0.07804262835612517,0.8451634749641916,0.0,0.0
2.244488977955912,-0.13279453954815024,0.2199445052037022,0.040718502622908256,-0.08934117444591469,0.7249070744207963,0.0,0.0
2.2645290581162323,-0.12812445686065316,0.23350413437485337,0.03876469044744709,-0.09769060877305842,0.6633574564083177,0.0,0.0
2.284569138276553,-0.12320663505988617,0.24589109003834886,0.036667517673302084,-0.10485863870725029,0.5628980306804582,0.0,0.0
2.3046092184368736,-0.11807966931109766,0.256348287439426,0.03447245772301764,-0.10975299751422245,0.4223021983273831,0.0,0.0
2.3246492985971945,-0.11279778884748114,0.26409402318082587,0.03224784013780321,-0.11123087926072105,0.30211680867945057,0.0,0.0
2.344689378757515,-0.10740725202333008,0.26952684120755244,0.030049890519813445,-0.10989748089948846,0.2239986192494102,0.0,0.0
2.3647294589178354,-0.10193791144692323,0.27346702882034263,0.02791041885553021,-0.10697358321416177,0.1521520983000917,0.0,0.0
2.3847695390781563,-0.09641718985556161,0.27603607956808063,0.02585794326990816,-0.10262377928110239,-0.005573319870329191,0.0,0.0
2.4048096192384767,-0.09090604587804477,0.2755571988758423,0.023971753137282562,-0.09430950663127981,0.02946043993866615,0.0,0.0
2.4248496993987976,-0.08539027026349319,0.2757887807275785,0.022219474259728176,-0.08761394387771934,0.6857192787846436,0.0,0.0
2.444889779559118,-0.07961328203954461,0.288849411197429,0.020206276018630405,-0.10065991205488857,0.612201277574439,0.0,0.0
2.464929859719439,-0.0736031901724278,0.30050459335584084,0.017962442656408364,-0.1121916681111021,0.3801039685656075,0.0,0.0
2.4849699398797593,-0.06744991838825237,0.3076635892087709,0.01560955570709108,-0.11764434746586411,0.08640709709557665,0.0,0.0
2.50501002004008,-0.06126739815801454,0.30912601151189173,0.013304551966808768,-0.11525018701411563,0.05242768741187871,0.0,0.0
2.5250501002004007,-0.05506822917203344,0.309958449299055,0.011052772495604653,-0.11258897356020568,-0.11183644174073472,0.0,0.0
2.5450901803607215,-0.048915866404895265,0.3076181383569088,0.008936102599744275,-0.10583349479301891,-0.5328557930108855,0.0,0.0
2.565130260521042,-0.04297399595807967,0.2970935223407796,0.007187472137304604,-0.08743152312198353,-0.11857984648596315,0.0,0.0
2.5851703406813624,-0.037080457328503895,0.294676931478789,0.005553527821574914,-0.08169721578648449,-0.5303239922136456,0.0,0.0
2.6052104208416833,-0.031395455565500704,0.28425008815015934,0.004264822783185701,-0.06443525191946065,0.001428537805209129,0.0,0.0
2.6252505010020037,-0.025711118444670014,0.28421685604153446,0.0030021754948397266,-0.0631323644172987,0.8214438043200333,0.0,0.0
2.6452905811623246,-0.019707093044758747,0.3002012699955633,0.0012779392074144327,-0.0862118143712647,0.6599946937353096,0.0,0.0
2.665330661322645,-0.013445886660353975,0.3130603192202386,-0.0008243176983631746,-0.10511284528888036,0.4854181313657907,0.0,0.0
2.685370741482966,-0.00699502137453875,0.32254326429076124,-0.0032157291255431753,-0.11957057135900002,0.08933556000168175,0.0,0.0
2.7054108216432864,-0.0005083742078892785,0.3243323583324736,-0.00567967621634172,-0.12319735453992722,-0.13052294126173772,0.0,0.0
2.7254509018036073,0.005928965909396014,0.3218670058642646,-0.00810308557870552,-0.12117046811818996,-0.4891864083590588,0.0,0.0
2.7454909819639277,0.012177733864731987,0.3124383977667986,-0.010291438516392392,-0.1094176468843436,-0.44762765761284007,0.0,0.0
2.7655310621242486,0.018254774464198466,0.30385202997332394,-0.01228284974021413,-0.09957056119108684,-0.4952865685449451,0.0,0.0
2.785571142284569,0.024142061416057868,0.29436434759297003,-0.014062005963056682,-0.08895781114212764,-0.5131419453478172,0.0,0.0
2.8056112224448895,0.02983313783005573,0.2845538206998932,-0.01562968951813124,-0.07838417775372793,-0.4715384137507076,0.0,0.0
2.8256513026052104,0.035344688313882405,0.2755775241913337,-0.017020126680830992,-0.06952185813498762,0.06735213463839929,0.0,0.0
2.845691382765531,0.040887396747592585,0.2771354216855091,-0.01855727581714179,-0.07685745681553985,0.1561189352127461,0.0,0.0
2.8657314629258517,0.04649634103410337,0.2804472143255393,-0.020302741946779376,-0.08727330648187931,-0.06456790109936489,0.0,0.0
2.885771543086172,0.0520859047277388,0.2794781846817716,-0.022138458693167478,-0.09178583731940501,-0.23591285479166202,0.0,0.0
2.905811623246493,0.057589752136785015,0.27519237045231076,-0.02397579501111851,-0.09186681589755152,-0.748372547683204,0.0,0.0
2.9258517034068134,0.06280844282224567,0.26093453427303226,-0.025526662388721907,-0.07754336888016991,-0.5408463693465073,0.0,0.0
2.9458917835671343,0.06782340157439427,0.25074793760743064,-0.026922208976448172,-0.06977732938631324,-0.5420250480982154,0.0,0.0
2.9659318637274548,0.07263456943741933,0.2405583931512529,-0.0281705554717797,-0.06241732476657638,-0.604633952073518,0.0,0.0
2.9859719438877756,0.0772178749011728,0.22916527318767288,-0.029242974892532744,-0.05362097103765222,-0.5817859192213971,0.0,0.0
3.006012024048096,0.08158254170175709,0.2182333400292147,-0.0301595980944582,-0.04583116009627283,-0.6174788059506605,0.0,0.0
3.0260521042084165,0.08571490600194133,0.2066182150092122,-0.03090534436232836,-0.03728731339350794,-0.15860936732987213,0.0,0.0
3.0460921843687374,0.08979423263300317,0.20396633155309196,-0.03175320279487037,-0.042392921627100795,-0.13446213714635963,0.0,0.0
3.066132264529058,0.09383018624289892,0.20179768049478758,-0.032722635966006934,-0.048471658556828195,-0.26785618637363995,0.0,0.0
3.0861723446893787,0.09777099415803389,0.19704039575674887,-0.03374177069778121,-0.05095673658871389,-0.5989123248045364,0.0,0.0
3.106212424849699,0.10148777210701926,0.18583889744926857,-0.03462350160125955,-0.04408654517391673,-0.5014885260129556,0.0,0.0
3.12625250501002,0.10501878757205632,0.17655077325185303,-0.03543034809788313,-0.04034232483117917,-0.5781344945321999,0.0,0.0
