time,x,x_dot,theta,theta_dot,u,x_ref,theta_ref
0.0,1.7746221640471802,0.07026618345340588,-0.1711201989544251,-0.04177384338648036,3.447488267531087,0.0,0.0
0.02004008016032064,1.777417930957152,0.13978834549859448,-0.17501025307418092,-0.19450270598779038,1.7899013587035324,0.0,0.0
0.04008016032064128,1.7809595284865758,0.1770798764711891,-0.1810244516295028,-0.30070992776609434,1.0638271917513333,0.0,0.0
0.06012024048096192,1.7849656027351835,0.2003037124303879,-0.18878151128228982,-0.3878529826393495,-0.5768712411826717,0.0,0.0
0.08016032064128256,1.7887992951504608,0.19168462076386097,-0.19738751519512057,-0.4303001956415374,-9.825396796125816,0.0,0.0
0.1002004008016032,1.7888638728084179,0.0032288828978551953,-0.20160548755548302,-0.21089861801812299,-3.2121313359369523,0.0,0.0
0.12024048096192384,1.7877345542046759,-0.056465930187100166,-0.2052466733892816,-0.18205929168992913,-4.334263882973519,0.0,0.0
0.1402805611222445,1.7849759027906327,-0.13793257070215648,-0.2076942986501994,-0.12238126304588948,-3.8811040762279525,0.0,0.0
0.16032064128256512,1.7807650338375633,-0.21054344765346322,-0.20922346742100728,-0.07645843854039426,-4.236386098561555,0.0,0.0
0.18036072144288576,1.7749642445056424,-0.29003946659605123,-0.20964173637060604,-0.02091344747993748,-3.6260966506318115,0.0,0.0
0.2004008016032064,1.7678110845767607,-0.3576579964440867,-0.2093000223812182,0.017085699469392306,-4.372874827979584,0.0,0.0
0.22044088176352705,1.7590149564388395,-0.43980640689606143,-0.20777009992057963,0.07649612303192893,-3.2800750054505223,0.0,0.0
0.24048096192384769,1.7490004801489463,-0.5007238144946612,-0.2056652359088366,0.1052432005871518,-4.125284118189187,0.0,0.0
0.2605210420841683,1.7374381893861337,-0.5781145381406323,-0.20248905355688346,0.1588091175976566,-3.0599809847076593,0.0,0.0
0.280561122244489,1.7247415373355717,-0.6348326025281005,-0.19882891180484455,0.18300708760194567,-3.568021486591192,0.0,0.0
0.3006012024048096,1.7107117260065057,-0.7014905664533024,-0.19437035399980654,0.22292789025189996,-2.8429105852541814,0.0,0.0
0.32064128256513025,1.6956295414169873,-0.7541092294759228,-0.18949893429637574,0.24357098517153944,-2.8373317461338368,0.0,0.0
0.3406813627254509,1.6794956928869489,-0.806692426501926,-0.184186130624722,0.2656401835826864,-2.6077376596132398,0.0,0.0
0.3607214428857715,1.6623979577220707,-0.854886758243911,-0.17852906882678998,0.2828530898966015,-2.6643383735638086,0.0,0.0
0.3807615230460922,1.6443126209988286,-0.9042668361621092,-0.17245859194891275,0.3035238438938621,-2.354349119856863,0.0,0.0
0.4008016032064128,1.625358576681008,-0.9477022158910298,-0.16611359239747045,0.31724997757211537,-2.3714711435763998,0.0,0.0
0.42084168336673344,1.605527294796261,-0.9915640942373394,-0.15944331487375224,0.33351387618590994,1.414856671151424,0.0,0.0
0.4408817635270541,1.5862916161876663,-0.9617839304297338,-0.15458753550500032,0.2427889684375965,0.8320094883392242,0.0,0.0
0.4609218436873747,1.5674234032088672,-0.9434106489399582,-0.15118083462423404,0.1703350440383139,0.19497284872622123,0.0,0.0
0.48096192384769537,1.5486736687073563,-0.9374867250755431,-0.14883472247664886,0.11730560737925878,0.0737658049275273,0.0,0.0
0.501002004008016,1.5299946004185083,-0.9339534144424012,-0.14746474842163604,0.06849870275064074,-0.44496004518768695,0.0,0.0
0.5210420841683366,1.5111837504331544,-0.9405424992676987,-0.14676278322749986,0.03509825970680883,-0.7208080640958018,0.0,0.0
0.5410821643286573,1.4921334594243383,-0.9525145504408056,-0.1465650730012079,0.009885511314597337,-0.9084829400938479,0.0,0.0
0.561122244488978,1.4727705538649485,-0.9681452779694869,-0.14676194235579554,-0.009843467729381716,-1.2485214287938557,0.0,0.0
0.5811623246492986,1.452962604275208,-0.9903974794870253,-0.14715816321271274,-0.01981104284586025,-1.4753486430369338,0.0,0.0
0.6012024048096192,1.432621347111736,-1.0170628581736003,-0.14762519495180546,-0.02335158695463486,-1.7215468039212856,0.0,0.0
0.6212424849699398,1.4116509939162445,-1.0485176597745758,-0.14802377597441185,-0.019929051130319595,-2.3554344761802293,0.0,0.0
0.6412825651302605,1.389804692869195,-1.0923150523524738,-0.14799027849512333,0.001674873964425852,-2.566201900931634,0.0,0.0
0.6613226452905812,1.367000318913709,-1.140218697774294,-0.14740273636822587,0.02937710634487322,-2.6893654947782237,0.0,0.0
0.6813627254509018,1.3431897108041644,-1.1905304054772343,-0.14618619657976234,0.060826989423176415,-2.811256504536306,0.0,0.0
0.7014028056112224,1.3183250100150359,-1.2432350394564278,-0.14426234109680364,0.09619277414793448,-2.9647243303903292,0.0,0.0
0.721442885771543,1.292345834396865,-1.298958780908538,-0.14152996740755694,0.13661868446233505,-3.0597512465326235,0.0,0.0
0.7414829659318637,1.2652143174436221,-1.3565758476621437,-0.13791633604368503,0.18068156819359624,-3.0727145674916065,0.0,0.0
0.7615230460921844,1.2369242932482953,-1.4145012097663394,-0.13339039440299558,0.22629708203447269,-3.020960584358182,0.0,0.0
0.781563126252505,1.2074945353739475,-1.4714878937173899,-0.1279526206999446,0.271888685152549,-2.963591097851049,0.0,0.0
0.8016032064128256,1.1769457322708037,-1.5274401551571903,-0.12160088245696063,0.317586912149198,-2.8909872087554285,0.0,0.0
0.8216432865731462,1.1453042402534965,-1.5820746008653623,-0.11433603698649056,0.3632422735235035,-3.109745166484561,0.0,0.0
0.8416833667334669,1.1124825621970185,-1.6410839028239077,-0.10598398261647765,0.41760271850064523,-2.8884431464149722,0.0,0.0
0.8617234468937875,1.078564427538539,-1.695906732923967,-0.09661912455644457,0.46824290300165394,-2.3760011106529886,0.0,0.0
0.8817635270541082,1.0437468372770216,-1.7408795130758756,-0.0864790971008938,0.5070013727775388,-1.2181199717235587,0.0,0.0
0.9018036072144289,1.0084783823116228,-1.7634227482699385,-0.07617326704692982,0.5152915026981985,-0.9184721569787805,0.0,0.0
0.9218436873747494,0.9728730137002966,-1.7802684305663137,-0.06581103303048196,0.5181117008223933,-0.43758013458558287,0.0,0.0
0.9418837675350701,0.9371154030724989,-1.787880531389882,-0.055607520742160625,0.5101756144160665,-0.2959186215585161,0.0,0.0
0.9619238476953907,0.9012579639181688,-1.7928719577165007,-0.045581190120531606,0.5013165310814508,0.3066009469489067,0.0,0.0
0.9819639278557114,0.8655329720730812,-1.7862495922543797,-0.03602095740350233,0.47801163585146383,0.13498610152858062,0.0,0.0
1.002004008016032,0.8298708048211452,-1.7831083625967998,-0.026766466787098646,0.4627245308201841,1.046645204081624,0.0,0.0
1.0220440881763526,0.7946246008142557,-1.7623102003444762,-0.01829257769720313,0.4236944544947758,-1.0068541875542618,0.0,0.0
1.0420841683366733,0.7589906836342907,-1.7816958589982508,-0.009345066519104677,0.4473755589049226,-0.7982819573704706,0.0,0.0
1.062124248496994,0.7230478999905433,-1.7971391821873708,1.0520885778700362e-05,0.4677793702441688,-0.7941717145882271,0.0,0.0
1.0821643286573146,0.6867952068706349,-1.8126346559954225,0.00983074397038645,0.49101115423038744,0.09028985986082916,0.0,0.0
1.1022044088176353,0.6505749755480451,-1.811011566129487,0.019660074863008272,0.49146654463109113,0.43904014286650184,0.0,0.0
1.122244488977956,0.6145205232431424,-1.802722615245132,0.029356462168126665,0.48481936525591957,1.4828084612094703,0.0,0.0
1.1422845691382766,0.57903639032257,-1.7742066460286194,0.038370756510265044,0.4507147171069191,0.20202428997262456,0.0,0.0
1.1623246492985972,0.5436202495922808,-1.7708070365144588,0.04750862509170072,0.456893429071784,1.207038813631496,0.0,0.0
1.1823647294589177,0.5086616475980862,-1.7479300997097327,0.05624045935903947,0.4365917133669373,0.29389523120166194,0.0,0.0
1.2024048096192383,0.47380183078856736,-1.7429908404759404,0.0651547556895615,0.4457148165261012,1.5081177238952095,0.0,0.0
1.222444889779559,0.43951197357201155,-1.7144928608277894,0.07359905936541862,0.4222151837928559,-0.699928266818707,0.0,0.0
1.2424849699398797,0.40492833789888755,-1.7291817836562011,0.08291466506727503,0.46578028509282066,-0.20577953074424704,0.0,0.0
1.2625250501002003,0.3702411465681947,-1.7343595665346443,0.0928716495509078,0.497849224181639,0.3603512697706669,0.0,0.0
1.282565130260521,0.335668482505022,-1.7286332031586327,0.103202650328469,0.5165500388780592,0.7766354197842109,0.0,0.0
1.3026052104208417,0.30136983340826445,-1.7149324548378788,0.11373044752465002,0.526389859809051,2.517982105790012,0.0,0.0
1.3226452905811623,0.2680211665036382,-1.6674333452313121,0.1235102390723406,0.48898957738452936,0.9341102801884342,0.0,0.0
1.342685370741483,0.23500217899699882,-1.650949375331969,0.1335235278591676,0.5006644393413505,2.5056831539222966,0.0,0.0
1.3627254509018036,0.20292258858028334,-1.6039795208357743,0.14292343428230322,0.4699953211567812,1.451268696959024,0.0,0.0
1.3827655310621243,0.1713687434580475,-1.5776922561117914,0.15238025967184873,0.4728412694772755,1.826041152586157,0.0,0.0
1.4028056112224447,0.14048399725060834,-1.5442373103719584,0.1617376610131518,0.46787006706515266,2.231191519386535,0.0,0.0
1.4228456913827654,0.11042348929267842,-1.503025397896496,0.1708218880512476,0.45421135190479095,3.1133833697269293,0.0,0.0
1.442885771543086,0.08152811010924513,-1.4447689591716644,0.17918386524790042,0.4180988598326416,3.0730946088217905,0.0,0.0
1.4629258517034067,0.05377960817923,-1.3874250965007564,0.18690144467075664,0.3858789711428113,3.26659176371096,0.0,0.0
1.4829659318637274,0.027250941695082492,-1.3264333242073754,0.19391417050951537,0.3506362919379362,3.3946869643488404,0.0,0.0
1.503006012024048,0.0019897911121586898,-1.26305752914619,0.20019479758729533,0.31403135388899783,3.5365745321109414,0.0,0.0
1.5230460921843687,-0.021950594703304353,-1.197019290773152,0.20570362585928129,0.2754414135992973,3.6634286496541417,0.0,0.0
1.5430861723446894,-0.04452260029404885,-1.128600279537225,0.2104046872403976,0.23505306905581505,3.7643555112180342,0.0,0.0
1.56312625250501,-0.0656884616699782,-1.0582930687964676,0.21427164066950918,0.19334767145557907,3.8405353093365293,0.0,0.0
1.5831663326653307,-0.08541978916999572,-0.9865663750008762,0.21728683242866115,0.15075958795759792,3.885443342839809,0.0,0.0
1.6032064128256511,-0.10370009136613598,-0.9140151098070124,0.21944481778063266,0.10789926759857538,3.905159496324962,0.0,0.0
1.6232464929859718,-0.12052240213972991,-0.8411155386796965,0.22074880127459565,0.06519917469814966,4.501372205429567,0.0,0.0
1.6432865731462925,-0.13565530369935033,-0.7566450779810211,0.22086839124741467,0.005979498640950667,4.332863445802432,0.0,0.0
1.6633266533066131,-0.14916437771207963,-0.6754537006364644,0.21990026256179804,-0.04840643428083125,4.155115253828837,0.0,0.0
1.6833667334669338,-0.1611184368973645,-0.5977029592642424,0.21793901916592776,-0.0980621697935147,3.9736074590695756,0.0,0.0
1.7034068136272544,-0.17158743690783748,-0.5234500005236499,0.21507480564468698,-0.14321067606203897,3.779570967025482,0.0,0.0
1.723446893787575,-0.18064592698999987,-0.4529245041081199,0.21139899339453913,-0.18379061250739287,3.5740048546452003,0.0,0.0
1.7434869739478958,-0.18837270176477436,-0.38633873873872426,0.2070043151678317,-0.21973391133537246,3.368379445137671,0.0,0.0
1.7635270541082164,-0.1948463785768463,-0.3236838406035969,0.20197902378992297,-0.25126456889543636,3.168184986698993,0.0,0.0
1.783567134268537,-0.20014329564608188,-0.264845853461779,0.19640439686658975,-0.278731346166661,2.9624283684663393,0.0,0.0
1.8036072144288577,-0.20434181882338912,-0.2099261588653621,0.19036159479287812,-0.3021401036855819,2.7606113366540694,0.0,0.0
1.8236472945891782,-0.20751867310397526,-0.15884271402930683,0.1839267958406639,-0.3217399476107104,2.681064723145449,0.0,0.0
1.8436873747494988,-0.20970290373623843,-0.10921153161315898,0.17710381999190372,-0.3411487924380091,2.447880885648589,0.0,0.0
1.8637274549098195,-0.21098326845794513,-0.06401823608533533,0.16998237423123783,-0.3560722880332942,2.235535765429472,0.0,0.0
1.8837675350701402,-0.21144036317762366,-0.022854735983926157,0.1626386502194676,-0.36718620058851054,2.0057669660841895,0.0,0.0
1.9038076152304608,-0.21116154078134153,0.013941119814106284,0.15515780843671878,-0.37404208913744175,1.8067678358298234,0.0,0.0
1.9238476953907815,-0.21022216573932007,0.046968752101072576,0.14760675600272788,-0.3775526216995448,1.644926618891227,0.0,0.0
1.9438877755511021,-0.20868313451436069,0.07695156124796884,0.14003079541238006,-0.37879802951739105,1.4578542920052484,0.0,0.0
1.9639278557114228,-0.20661518857026961,0.10339729720455339,0.13248989941219477,-0.3770448000092646,1.2880888126026442,0.0,0.0
1.9839679358717435,-0.20408235723975554,0.12664156652570388,0.12503449670169506,-0.3727701355249855,1.128441574135893,0.0,0.0
2.004008016032064,-0.20114476791666816,0.14687946615436961,0.11770990363255289,-0.3662296534571086,0.9842288573726018,0.0,0.0
2.024048096192385,-0.19785658229427389,0.1644092811197141,0.11055348711186455,-0.3578208260344171,0.66579440945128,0.0,0.0
2.0440881763527052,-0.19433994520782402,0.17583185432249285,0.10370502404932144,-0.3424231531271556,0.618678803615619,0.0,0.0
2.064128256513026,-0.19061132583146165,0.18643096881811916,0.09714880634189366,-0.3278108853713892,0.5495932546117617,0.0,0.0
2.0841683366733466,-0.18669583759218766,0.19577441196369977,0.09088376191571967,-0.313252221308699,0.48220668205205797,0.0,0.0
2.1042084168336674,-0.18261801118568455,0.20389132032515608,0.08490969450430244,-0.29870337057086155,0.40099052633063764,0.0,0.0
2.124248496993988,-0.17840785122931604,0.21050799781842483,0.07923632325632578,-0.28366856239883287,0.3526159314436985,0.0,0.0
2.1442885771543083,-0.17408263689924808,0.21626071650339812,0.07385615088908072,-0.269008618362253,0.2836488042590108,0.0,0.0
2.164328657314629,-0.1696677599293972,0.22074384849254441,0.06877554344832393,-0.2540303720378397,0.23216783055076945,0.0,0.0
2.1843687374749496,-0.1651818745249451,0.22429427022260498,0.0639925706048313,-0.23914864217463197,0.17262435759721292,0.0,0.0
2.2044088176352705,-0.16064686253059307,0.22675059971760086,0.05951188933069423,-0.22403406370685322,0.14971737498716745,0.0,0.0
2.224448897795591,-0.1560703974529277,0.2288232538832684,0.05531868222752493,-0.2096603551584649,0.0940668708367563,0.0,0.0
2.244488977955912,-0.15147300633990207,0.22986955565128062,0.05141905857584623,-0.19498118258393513,0.10283841560637647,0.0,0.0
2.2645290581162323,-0.14685016442839144,0.2311420955755323,0.04778335508575738,-0.1817851745044423,0.0999114454373667,0.0,0.0
2.284569138276553,-0.14220198353552496,0.2324090446433236,0.04439039401360832,-0.16964805360745275,0.10279500786246164,0.0,0.0
2.3046092184368736,-0.13752637560264816,0.2337803966438401,0.041217125403972946,-0.15866343048176895,0.10327985064054723,0.0,0.0
2.3246492985971945,-0.13282224945876084,0.2352063071943656,0.03824327925166187,-0.14869230761555394,0.10569515722694277,0.0,0.0
2.344689378757515,-0.12808781630952432,0.23672165746182672,0.035448709455663314,-0.13972848979992764,0.10908129589660875,0.0,0.0
2.3647294589178354,-0.12332095867429035,0.23834288176169838,0.032813828440713434,-0.13174405074749398,0.11039773051519194,0.0,0.0
2.3847695390781563,-0.11852041141549383,0.24002736293982624,0.030321261935356603,-0.12462832526784152,0.11013499671213998,0.0,0.0
2.4048096192384767,-0.11368556559738577,0.24174229090540306,0.027955453717561377,-0.11829041088976125,0.11441882116977628,0.0,0.0
2.4248496993987976,-0.1088140739284645,0.24357458344606325,0.025698986521511428,-0.1128233598024974,0.3308822379045472,0.0,0.0
2.444889779559118,-0.10382082591939637,0.24966240045340643,0.023411058192669518,-0.11439641644209546,0.34255399641688333,0.0,0.0
2.464929859719439,-0.09870061154568616,0.2560107186855108,0.021070409903087315,-0.11703241447911007,0.2912602208047832,0.0,0.0
2.4849699398797593,-0.09347277547604536,0.2613918034820395,0.018692273176586068,-0.1189068363250624,0.2448469704217717,0.0,0.0
2.50501002004008,-0.08815474753302331,0.26590139715110245,0.016288792280195967,-0.120174044819505,0.20922605631204952,0.0,0.0
2.5250501002004007,-0.08275973917741232,0.26975041778054937,0.01386564223968594,-0.12115750202550131,0.11867819934410333,0.0,0.0
2.5450901803607215,-0.0773223900156758,0.271867458086826,0.011460503202175685,-0.12025695187551277,0.03671813122323683,0.0,0.0
2.565130260521042,-0.07187399407110961,0.27241979722830933,0.009106149621373126,-0.11771767904012793,0.02452981710671939,0.0,0.0
2.5851703406813624,-0.06641863354786239,0.27276802616236134,0.006794866106671046,-0.11556417573510397,-0.02944590598227199,0.0,0.0
2.6052104208416833,-0.06097670936896972,0.27209620894463343,0.004543652604737509,-0.11256067509667689,-0.12157715771405911,0.0,0.0
2.6252505010020037,-0.05558352893055815,0.26965902192057845,0.0023922081885098426,-0.10757222081138332,0.15859944167285164,0.0,0.0
2.6452905811623246,-0.050129144033942474,0.2727192448307838,0.00016307207570792235,-0.11145680564009601,0.14628241737119138,0.0,0.0
2.665330661322645,-0.04461772262787277,0.27557107030348504,-0.00215060709692417,-0.11568395863160462,0.06605690771496937,0.0,0.0
2.685370741482966,-0.03907990822324037,0.27689072023162037,-0.0045164886093671235,-0.11829407562214767,-0.07423371357442234,0.0,0.0
2.7054108216432864,-0.03356976836542637,0.27550699289069985,-0.006867424928455955,-0.11754681595444158,-0.20835802080133897,0.0,0.0
2.7254509018036073,-0.0281389684203018,0.2715399972562284,-0.009139783437153975,-0.11361792543490097,-0.17878201783699527,0.0,0.0
2.7454909819639277,-0.02277531611656816,0.2681826151866819,-0.01136519521074759,-0.11127058867968075,-0.2619343926890989,0.0,0.0
2.7655310621242486,-0.017510621846703593,0.26323471349322847,-0.013509056398377161,-0.10719305938147856,-0.28472904003345817,0.0,0.0
2.785571142284569,-0.012353166143659973,0.257872785152181,-0.015571556099946971,-0.10312498507849054,-0.3358578086165648,0.0,0.0
2.8056112224448895,-0.007322309236311721,0.2515428453674126,-0.01753579909031828,-0.09821214951856544,-0.36799507536014164,0.0,0.0
2.8256513026052104,-0.0024300284059862592,0.24461404151627308,-0.019395380551587803,-0.09297907306347628,-0.1935984689132226,0.0,0.0
2.845691382765531,0.0023922619484896598,0.24111451772379594,-0.021264028066516356,-0.09343237574642767,-0.28128449220478546,0.0,0.0
2.8657314629258517,0.007110880787546528,0.23593094195284342,-0.02310224554558123,-0.09191087395324374,-0.3300868275807243,0.0,0.0
2.885771543086172,0.011707311704744303,0.2298215458598888,-0.024893088779359997,-0.08954216168893836,-0.37252431315227075,0.0,0.0
2.905811623246493,0.016165508625730435,0.22290984604930653,-0.026623039563053674,-0.08649753918468386,-0.43734252235543597,0.0,0.0
2.9258517034068134,0.02046067519852083,0.21475832863951974,-0.02826511138957626,-0.08210359132612922,-0.48828332068955255,0.0,0.0
2.9458917835671343,0.024573405341362133,0.20563650714206513,-0.029799881666993936,-0.0767385138708839,-0.5208347653925834,0.0,0.0
2.9659318637274548,0.02849143809010022,0.19590163743690442,-0.031218005792123825,-0.07090620625649448,-0.5656121808395186,0.0,0.0
2.9859719438877756,0.03219770866859194,0.18531352892458597,-0.03250225716165732,-0.06421256847667481,-0.608626230798068,0.0,0.0
3.006012024048096,0.035675802221406885,0.17390467764074752,-0.033635597705439065,-0.05666702718908723,-0.6608949572588356,0.0,0.0
3.0260521042084165,0.03890564969266596,0.16149237356295387,-0.034594628714973555,-0.04795155047672451,-0.6988463271220543,0.0,0.0
3.0460921843687374,0.04187271873603832,0.14835345216861767,-0.0353632227947272,-0.03842970398768232,-0.7300871532180345,0.0,0.0
3.066132264529058,0.04456504079464687,0.13461610293042753,-0.03592797387601114,-0.028237554064197076,-0.7394108216372818,0.0,0.0
3.0861723446893787,0.04697914059339035,0.12070498993717423,-0.036287000507636905,-0.017951331581288067,-0.7422492694785814,0.0,0.0
3.106212424849699,0.04911401409238384,0.10674367494967427,-0.03644091234970011,-0.0076955921031601395,-0.7366091416643457,0.0,0.0
3.12625250501002,0.05097190641317889,0.09289461603975262,-0.03639397892728208,0.0023466711209014727,-0.7287043662880763,0.0,0.0
