time,x,x_dot,theta,theta_dot,u,x_ref,theta_ref
0.0,-1.6574033314255026,-0.05263789868078006,0.12050978608255875,0.016432407212873562,-5.336541474202753,0.0,0.0
0.02004008016032064,-1.6605705209604793,-0.1583594767488347,0.12469155460341996,0.20908842604306072,-1.9599776284219876,0.0,0.0
0.04008016032064128,-1.6645369067655484,-0.19831929025345657,0.13079289833481456,0.3050671865697291,-1.8771665734365393,0.0,0.0
0.06012024048096192,-1.6692716833746748,-0.23673883045631716,0.13880266245510012,0.4004882060142785,-0.9692918302377062,0.0,0.0
0.08016032064128256,-1.6744229638711001,-0.25756402482126806,0.14824382057814686,0.47205790615233717,2.161055104229936,0.0,0.0
0.1002004008016032,-1.6787734519215087,-0.21752440252042812,0.15736564874665235,0.45609140842527485,-1.3260936071871146,0.0,0.0
0.12024048096192384,-1.6836841399572646,-0.24553440178779215,0.16823779551146362,0.5436073382405638,2.761159989032547,0.0,0.0
0.1402805611222445,-1.6875658139800964,-0.1940837011415857,0.17857312744581777,0.5167665967177071,-0.14016366467726193,0.0,0.0
0.16032064128256512,-1.691551123352714,-0.19926546863087843,0.1901051308573857,0.5766001705783971,3.043211689724926,0.0,0.0
0.18036072144288576,-1.6944038113691584,-0.1426344008222125,0.20108025494838386,0.5487562045499077,1.5996063193323615,0.0,0.0
0.2004008016032064,-1.696688869450331,-0.11425290405862952,0.21239527739542233,0.565751122351923,4.353873354905318,0.0,0.0
0.22044088176352705,-1.6973379977258172,-0.03245641377430114,0.22255178668239772,0.5078254643487695,2.5415494401324388,0.0,0.0
0.24048096192384769,-1.6970592478902207,0.013937491779826484,0.23264867075136156,0.5048442034481915,4.282908987553352,0.0,0.0
0.2605210420841683,-1.6951785805988475,0.09403336456865916,0.2417636950209195,0.45575121347789715,3.866875385015681,0.0,0.0
0.280561122244489,-1.691860641020047,0.16589697894002525,0.2501937013366479,0.42150031578642205,4.631040431349844,0.0,0.0
0.3006012024048096,-1.686811211123624,0.25247149482114556,0.2575638396771547,0.368506917025338,4.830482938643996,0.0,0.0
0.32064128256513025,-1.6799553020838136,0.34279545199051353,0.2638121308677627,0.3124145595303986,5.248290836499063,0.0,0.0
0.3406813627254509,-1.671132812836972,0.4411244623420847,0.26874671423214136,0.2467291682189337,5.59349284926809,0.0,0.0
0.3607214428857715,-1.6602114784608604,0.5460667188055783,0.2722082367101919,0.17307612390252752,5.855949128840401,0.0,0.0
0.3807615230460922,-1.6470906957563414,0.6560391352259534,0.2740739521520817,0.0932857720944904,6.046052917939058,0.0,0.0
0.4008016032064128,-1.6316973966775565,0.7696649539392436,0.27425063167320246,0.008833976056038112,6.148727371234686,0.0,0.0
0.42084168336673344,-1.6139918322239595,0.8852782226798525,0.2726820782529637,-0.078427671011937,4.019771332939017,0.0,0.0
0.4408817635270541,-1.5947998427817773,0.9595994721091096,0.2705501944494943,-0.10659419017347041,4.281545309500277,0.0,0.0
0.4609218436873747,-1.5740191417530551,1.0390350514361077,0.2676938810496399,-0.14281566999271852,4.47996777714595,0.0,0.0
0.48096192384769537,-1.551571779228432,1.1223681262311553,0.26398245892923833,-0.1855711060200803,4.624543618155427,0.0,0.0
0.501002004008016,-1.5274004071039187,1.2085686062256673,0.25930945821689294,-0.23365003561726932,4.733942325950871,0.0,0.0
0.5210420841683366,-1.5014609944385455,1.2969706332686521,0.25358143107999315,-0.2864013568449893,4.778423055973701,0.0,0.0
0.5410821643286573,-1.4737343496592983,1.3863322389623656,0.24673411850389315,-0.34236562880499927,4.7779196266840405,0.0,0.0
0.561122244488978,-1.4442183699493287,1.4757989854984728,0.23872093771297737,-0.40065903954578874,4.7399701001990175,0.0,0.0
0.5811623246492986,-1.4129251121797959,1.5646628884766383,0.2295085764652439,-0.46061806238667413,4.654751077857481,0.0,0.0
0.6012024048096192,-1.3798846195151226,1.652024633233664,0.21908253879678902,-0.5213018834227444,4.527111457989921,0.0,0.0
0.6212424849699398,-1.3451430597642011,1.7370779875460762,0.2074445732089557,-0.5818982793916652,6.558275652961723,0.0,0.0
0.6412825651302605,-1.3079064383747554,1.8618310694722866,0.19335683028752573,-0.7043871460714982,5.758336674307593,0.0,0.0
0.6613226452905812,-1.2684808657547755,1.9712786309989914,0.17717802192949259,-0.8089404179016575,5.01933063264521,0.0,0.0
0.6813627254509018,-1.2271484301689222,2.0666217792926633,0.15922117290607113,-0.8978424511710725,4.323979421970166,0.0,0.0
0.7014028056112224,-1.1841740606822124,2.148718474335486,0.13976578245245072,-0.9727695226810209,3.59706663962731,0.0,0.0
0.721442885771543,-1.139834929009698,2.2169565836257146,0.11910311544042695,-1.0331333506011884,2.839348385933304,0.0,0.0
0.7414829659318637,-1.0944202628135773,2.270733309806038,0.09753781179889695,-1.0782651820765001,2.201819708930123,0.0,0.0
0.7615230460921844,-1.048172538684776,2.3123862064400593,0.07530189311867548,-1.1117959340110732,1.5055480506292145,0.0,0.0
0.781563126252505,-1.0013572337633168,2.3407652460729667,0.05265962667341911,-1.1321133222628184,1.0761385055900008,0.0,0.0
0.8016032064128256,-0.9541358238584113,2.361070495245271,0.029718729328202794,-1.147044867260816,0.6009030144084112,0.0,0.0
0.8216432865731462,-0.906687691238931,2.372406630974017,0.006612721682495423,-1.1553003822853685,-0.40187687063937727,0.0,0.0
0.8416833667334669,-0.8593981041310927,2.364479355391913,-0.016216763202009456,-1.141474244225244,-1.02830161071918,0.0,0.0
0.8617234468937875,-0.8125055442265271,2.344627995228284,-0.038546448351636974,-1.1164842574813758,-1.1239464227984262,0.0,0.0
0.8817635270541082,-0.7660414303691901,2.323205692866849,-0.060460798396343725,-1.0957175022353376,-1.537941312620556,0.0,0.0
0.9018036072144289,-0.7201614327053254,2.293999883193238,-0.08185619238124126,-1.0697696992448769,-1.7503092720720823,0.0,0.0
0.9218436873747494,-0.6749425955053076,2.2609418600008926,-0.10274426053036002,-1.0444034074559385,-2.2041869764365085,0.0,0.0
0.9418837675350701,-0.6305561885512254,2.219320347704109,-0.12299374111871343,-1.0124740294176706,-2.672239072722592,0.0,0.0
0.9619238476953907,-0.5871790019385845,2.1688593306320425,-0.14246269600704087,-0.9734477444163725,-3.0393611467415322,0.0,0.0
0.9819639278557114,-0.5449485032909396,2.111524932382246,-0.16106443599863612,-0.9300869995797632,-3.4199703066708884,0.0,0.0
1.002004008016032,-0.5040074753430834,2.047051397392806,-0.17870057706154882,-0.8818070531456343,-3.792413709258578,0.0,0.0
1.0220440881763526,-0.46449560241311827,1.9755936464982569,-0.19527296416061402,-0.8286193549532603,-5.925259568694495,0.0,0.0
1.0420841683366733,-0.42723775395532304,1.8628924228897614,-0.20967085288226606,-0.7198944360826025,-6.074749586701272,0.0,0.0
1.062124248496994,-0.3922868744431886,1.7475439756067215,-0.22190927487456585,-0.6119210996149904,-6.147284848721958,0.0,0.0
1.0821643286573146,-0.35966663871476756,1.6310117864210527,-0.23203292124996844,-0.5061823187701293,-6.173485257127871,0.0,0.0
1.1022044088176353,-0.32938342337801946,1.5141607668374055,-0.24009841222565523,-0.40327454878434005,-6.147004935000044,0.0,0.0
1.122244488977956,-0.30142386957778144,1.3979776900118999,-0.24617788849066766,-0.30397381325062145,-6.083279286227799,0.0,0.0
1.1422845691382766,-0.2757608889971689,1.2831490290306289,-0.2503505053271253,-0.208630841822882,-5.975137131241783,0.0,0.0
1.1623246492985972,-0.25235086316441635,1.170501291637628,-0.25270690888082187,-0.11782017768483039,-5.822860947272819,0.0,0.0
1.1823647294589177,-0.2311337229362075,1.0608570114104436,-0.2533496785869013,-0.03213848530397109,-5.639160362304661,0.0,0.0
1.2024048096192383,-0.21203783883279012,0.954794205170868,-0.2523869496993483,0.04813644437764936,-5.426096280517555,0.0,0.0
1.222444889779559,-0.19498076362243405,0.852853760517804,-0.24993215696323481,0.12273963680567304,-6.897770870675911,0.0,0.0
1.2424849699398797,-0.18053507609462383,0.7222843763905114,-0.24513780053247447,0.23971782153801674,-6.177897542913039,0.0,0.0
1.2625250501002003,-0.16842290321974515,0.6056086437439332,-0.23837606349312393,0.3380868519675267,-5.544493663264865,0.0,0.0
1.282565130260521,-0.15840057455372952,0.5011164333007818,-0.2299576528085768,0.42092053422735703,-4.910419592491517,0.0,0.0
1.3026052104208417,-0.15022457818793417,0.40879981828976764,-0.22018376038592025,0.48869462113282786,-4.31882953216891,0.0,0.0
1.3226452905811623,-0.14366817747006072,0.3278200358936728,-0.20932404980049302,0.5429855292713618,-3.72859031019254,0.0,0.0
1.342685370741483,-0.1385053026708299,0.2581437399615417,-0.19764204859316148,0.5841000603665769,-3.1919757705785536,0.0,0.0
1.3627254509018036,-0.13453078905519045,0.19872568078197222,-0.18536716219034227,0.6137443201409599,-2.6745028064064176,0.0,0.0
1.3827655310621243,-0.1315469058277887,0.14919416137008779,-0.17271574941241072,0.6325706388965777,-2.2226023154909096,0.0,0.0
1.4028056112224447,-0.12938138629162493,0.1082759768081882,-0.15986570600192626,0.6425021705242223,-1.7567568954463524,0.0,0.0
1.4228456913827654,-0.1278564476365654,0.07624693275297735,-0.14700306301557345,0.6431321493176406,-1.2231269775089817,0.0,0.0
1.442885771543086,-0.1267677705935954,0.05443385214849955,-0.13435422012512105,0.6324421445226196,-0.7938202412836326,0.0,0.0
1.4629258517034067,-0.12595150175564768,0.04081344189738578,-0.12208783651537324,0.6133191804873906,-0.4395326913397408,0.0,0.0
1.4829659318637274,-0.1252728464285241,0.03393276635617843,-0.1103323442447095,0.5877746135331866,0.2153309738012058,0.0,0.0
1.503006012024048,-0.12447963780762991,0.0396604310447091,-0.09939456478885501,0.5468889727927242,0.4095182742205081,0.0,0.0
1.5230460921843687,-0.12349903558806241,0.049030110978374786,-0.08931942744555046,0.5037568671652277,0.5279743495683225,0.0,0.0
1.5430861723446894,-0.12228751373290488,0.06057609275787642,-0.08011324585270416,0.4603090796423156,0.6162867910310093,0.0,0.0
1.56312625250501,-0.12081308937698715,0.07372121779588633,-0.07177017588912826,0.4171534981787946,0.6915411177822546,0.0,0.0
1.5831663326653307,-0.11904865874662782,0.08822153151796631,-0.06428210752046372,0.3744034184332274,0.7350415564472612,0.0,0.0
1.6032064128256511,-0.11697928853105878,0.10346851077845153,-0.057627701297751126,0.33272031113562955,0.7719367094731884,0.0,0.0
1.6232464929859718,-0.1145924082243838,0.11934401533374953,-0.051786924448873874,0.2920388424438626,1.4369573270339528,0.0,0.0
1.6432865731462925,-0.1116301710534856,0.14811185854490963,-0.0471116684486143,0.23376280001297878,1.208642201370202,0.0,0.0
1.6633266533066131,-0.1081829350795695,0.17236179869580537,-0.043439390744602895,0.18361388520057045,1.004515096518935,0.0,0.0
1.6833667334669338,-0.10433135977097834,0.19257876542955837,-0.04062785522858526,0.14057677580088185,0.8802321067887503,0.0,0.0
1.7034068136272544,-0.1001247208043513,0.21033194833135183,-0.038586820214323254,0.10205175071310035,0.758071831584699,0.0,0.0
1.723446893787575,-0.09561125424041472,0.22567332819682892,-0.03723208926452396,0.06773654748996472,0.6293950390083717,0.0,0.0
1.7434869739478958,-0.09084154838397905,0.23848529282178357,-0.03647994836925315,0.03760704476354066,0.5012316991633906,0.0,0.0
1.7635270541082164,-0.08586582266873696,0.24878628576210435,-0.03625075933721416,0.011459451601949291,0.32833675167955867,0.0,0.0
1.783567134268537,-0.0807516030803642,0.2557109794186378,-0.036442019634031896,-0.009563014840886827,0.10055463026341638,0.0,0.0
1.8036072144288577,-0.07558771295419917,0.2581945063082522,-0.036921787603839525,-0.023988398490381313,-0.210527152613045,0.0,0.0
1.8236472945891782,-0.07049539575883125,0.254615859768396,-0.037511251574951686,-0.029473198555607948,-0.10572456877339999,0.0,0.0
1.8436873747494988,-0.06543359051422293,0.2530902622304161,-0.03827538508425466,-0.03820667546514888,-0.3205567615341401,0.0,0.0
1.8637274549098195,-0.060485903315349934,0.24738435994364977,-0.03909343751412053,-0.04090262149329372,-0.5185105501308798,0.0,0.0
1.8837675350701402,-0.05572933816550006,0.23782825749249378,-0.039854872162693344,-0.038071732428640724,-0.5396149161536602,0.0,0.0
1.9038076152304608,-0.051171911044191457,0.2278713560654302,-0.04055216167596608,-0.03486447566363657,-0.5646582661497385,0.0,0.0
1.9238476953907815,-0.04682319316507007,0.21743589395606955,-0.041175072553261104,-0.03114554386475136,-0.5928137792520336,0.0,0.0
1.9438877755511021,-0.04269399129254821,0.20646009362609302,-0.04171108383774064,-0.02680056422397658,-0.6109096792452549,0.0,0.0
1.9639278557114228,-0.03879121202016612,0.19513896361910466,-0.04215300549618243,-0.022096082922089727,-0.6222177707511543,0.0,0.0
1.9839679358717435,-0.03511914048183453,0.18360357691657922,-0.04249702043017632,-0.017200746699694482,-0.621616914353921,0.0,0.0
2.004008016032064,-0.03167744335052469,0.172084856565492,-0.04274565263488606,-0.012431610235487082,-0.6208414796234426,0.0,0.0
2.024048096192385,-0.028465746599925065,0.16058483752998132,-0.04290092566307486,-0.007763651409439899,-0.9861061605730439,0.0,0.0
2.0440881763527052,-0.02562652222248219,0.1419612188721437,-0.04275037541131701,0.007527512587892572,-0.9121344837894235,0.0,0.0
2.064128256513026,-0.023130951733160158,0.12477852446610167,-0.04233627566573498,0.020704987279101545,-0.7820293329597889,0.0,0.0
2.0841683366733466,-0.02092839080202957,0.1101280465565294,-0.041732037188114565,0.030211923881020702,-0.6767524635866949,0.0,0.0
2.1042084168336674,-0.018977936917544753,0.09752269422424077,-0.04099536331955017,0.03683369342821981,-0.6050248116613932,0.0,0.0
2.124248496993988,-0.017251815391353453,0.08630607630956498,-0.040163518341269515,0.041592248914032716,-0.555565326146386,0.0,0.0
2.1442885771543083,-0.015730967119059334,0.07604241361470598,-0.03926015449465968,0.04516819233049159,-0.5029937438088737,0.0,0.0
2.164328657314629,-0.01439513898443576,0.06679140673117866,-0.038310293770820965,0.047493036191935595,-0.4524662212078805,0.0,0.0
2.1843687374749496,-0.013224888482061187,0.058512525118728655,-0.03733747261641018,0.048641057720539,-0.37418642200552643,0.0,0.0
2.2044088176352705,-0.01218995085416498,0.05174688139481036,-0.03638130653474504,0.04780830408325709,-0.30115569640626494,0.0,0.0
2.224448897795591,-0.011262104261922154,0.046392329612141285,-0.03547845177188333,0.04514273814308575,-0.4464637682503626,0.0,0.0
2.244488977955912,-0.010498304882367266,0.03818996897774442,-0.03453827390275047,0.04700889345664286,-0.45012157319731355,0.0,0.0
2.2645290581162323,-0.009900249635319883,0.029902762352369164,-0.033552701154620085,0.049278637406519554,-0.4217369934336761,0.0,0.0
2.284569138276553,-0.00945714576616095,0.022155193457946608,-0.03253210691437271,0.051029712012368895,-0.3498002951723074,0.0,0.0
2.3046092184368736,-0.009141216577041773,0.01579645945595888,-0.031512106268589045,0.05100003228918326,-0.22708661309875866,0.0,0.0
2.3246492985971945,-0.008904871768645333,0.011817240419821969,-0.030558007649578167,0.047704930950543824,-0.25337413401135533,0.0,0.0
2.344689378757515,-0.008758641753502794,0.007311500757126961,-0.029648425246647403,0.0454791201465382,-0.19263121985399478,0.0,0.0
2.3647294589178354,-0.008679085017213954,0.003977836814442009,-0.028813137644761122,0.04176438009431411,-0.2707989557594759,0.0,0.0
2.3847695390781563,-0.008696941819766183,-0.0008928401276114446,-0.028001173615655885,0.04059820145526195,-0.18767537994002964,0.0,0.0
2.4048096192384767,-0.008780009632498706,-0.004153390636626111,-0.02725601504868757,0.03725792834841574,-0.27373267349477015,0.0,0.0
2.4248496993987976,-0.00896208171745078,-0.00910360424760363,-0.026522643391103228,0.03666858287921706,-0.5038698829734458,0.0,0.0
2.444889779559118,-0.009333169134607815,-0.018554370857851773,-0.025661862941634542,0.04303902247343436,-0.5299055874108525,0.0,0.0
2.464929859719439,-0.009903678441362078,-0.028525465337713163,-0.02465301588163744,0.050442352999855083,-0.4190728301458623,0.0,0.0
2.4849699398797593,-0.01063065155856508,-0.03634865586015005,-0.023554545487691494,0.05492351969729739,-0.3216781362603112,0.0,0.0
2.50501002004008,-0.011476399331007841,-0.042287388622138086,-0.022416475202885422,0.05690351424030372,-0.16864369386494296,0.0,0.0
2.5250501002004007,-0.012381532264246958,-0.04525664666195591,-0.021321120694809757,0.0547677254037833,-0.11848678929728199,0.0,0.0
2.5450901803607215,-0.013326792175078971,-0.04726299554160065,-0.020290907378955617,0.051510665792707015,-0.17438291823154933,0.0,0.0
2.565130260521042,-0.014334285494692395,-0.05037466598067119,-0.019286649292798334,0.050212904307864195,-0.0783541287715358,0.0,0.0
2.5851703406813624,-0.015366828008673953,-0.05162712569907785,-0.01835817550524525,0.0464236893776542,-0.17809776972788757,0.0,0.0
2.6052104208416833,-0.016463607153761276,-0.05483895725436623,-0.017441295769887816,0.045843986767871596,-0.021172967024580186,0.0,0.0
2.6252505010020037,-0.017563650877970963,-0.055002186210484284,-0.016622008535023176,0.04096436174323205,-0.39046991919105567,0.0,0.0
2.6452905811623246,-0.018811300100481335,-0.062382461125518575,-0.01567915377786058,0.04714273785812987,-0.4100790034253897,0.0,0.0
2.665330661322645,-0.020214477235089977,-0.07015885673043205,-0.014595313590462823,0.05419200936988779,-0.22763214089619152,0.0,0.0
2.685370741482966,-0.02170229891989918,-0.07439108424046009,-0.013470363191831626,0.05624751993155986,-0.10737802437718195,0.0,0.0
2.7054108216432864,-0.02322816199812734,-0.07629315391140797,-0.012367545387367227,0.055140890223219934,-0.08704713967224326,0.0,0.0
2.7254509018036073,-0.024784448898036507,-0.07781434499545838,-0.011291797734658878,0.053787382635417436,-0.08368462934547935,0.0,0.0
2.7454909819639277,-0.02637015571285829,-0.07928534074108916,-0.010238303474291178,0.052674713018385014,0.008420910824454578,0.0,0.0
2.7655310621242486,-0.02794964259905402,-0.07897434430978648,-0.009254295361721713,0.049200405628473304,0.12664380093652305,0.0,0.0
2.785571142284569,-0.029477058063825057,-0.07637077323855183,-0.00840272274452889,0.042578630859641184,0.06732046657073429,0.0,0.0
2.8056112224448895,-0.030975795354950302,-0.0749368645562622,-0.007643515569104582,0.037960358771215376,0.05300236304113394,0.0,0.0
2.8256513026052104,-0.03245165922584154,-0.07379319354456179,-0.006963511453786733,0.03400020576589245,-0.3326041962339691,0.0,0.0
2.845691382765531,-0.03405531769274785,-0.08018292334531547,-0.0061328593634672295,0.041532604515975194,-0.4208421967100406,0.0,0.0
2.8657314629258517,-0.03582144165446391,-0.08830619808580313,-0.005094704290269888,0.05190775365986708,-0.2504903141439062,0.0,0.0
2.885771543086172,-0.03768385324605463,-0.09312057957953608,-0.003942147879158358,0.05762782055557651,-0.026933328748512397,0.0,0.0
2.905811623246493,-0.03955564521561352,-0.09358959847794436,-0.002798695090154346,0.057172639450200596,0.08830601044121107,0.0,0.0
2.9258517034068134,-0.041392175871226254,-0.09182653278063667,-0.0017245470551023824,0.05370740175259819,0.2015115135062968,0.0,0.0
2.9458917835671343,-0.04314957727752186,-0.0878700703147802,-0.0007791525782084756,0.047269723844695334,0.1670708090542888,0.0,0.0
2.9659318637274548,-0.04484156000193849,-0.08459913622083123,6.359664224163744e-05,0.04213746102250565,0.11088617199361295,0.0,0.0
2.9859719438877756,-0.04649029027843665,-0.08243651382490819,0.0008418814294721519,0.03891423936152572,0.2844317842823577,0.0,0.0
3.006012024048096,-0.04802826915330234,-0.07689894374328432,0.001459090107914957,0.030860433922140253,0.01950664787334988,0.0,0.0
3.0260521042084165,-0.0495590542283129,-0.07653925375052784,0.0020740889260145233,0.030749940904978304,-0.2306622416859303,0.0,0.0
3.0460921843687374,-0.05118044416508666,-0.08106949683868767,0.0028370978722438694,0.038150447311467314,-0.0958613018496352,0.0,0.0
3.066132264529058,-0.052840054790572855,-0.08298053127430989,0.0036740735047401858,0.041848781624815826,-0.08437372636655367,0.0,0.0
3.0861723446893787,-0.05453364320042203,-0.0846794204924589,0.004583573645572927,0.04547500704163706,-0.0001768900636143489,0.0,0.0
3.106212424849699,-0.05622861425377109,-0.08474855266745301,0.005522080919076524,0.046925363675179806,0.05565729301371647,0.0,0.0
