time,x,x_dot,theta,theta_dot,u,x_ref,theta_ref
0.0,-1.0413162977951886,0.057738608958827514,0.08881782035611219,-0.09084440085604345,-2.7451238912989853,0.0,0.0
0.02004008016032064,-1.041257424548194,0.002943662349724839,0.08915851509249595,0.017034736819187962,-1.5244037711715783,0.0,0.0
0.04008016032064128,-1.0418184744136039,-0.028052493270494024,0.09094805325654005,0.08947690820220543,-0.6348671818624588,0.0,0.0
0.06012024048096192,-1.0426530124188902,-0.041726900264313894,0.09367957705313999,0.13657618982999697,-1.3070479655855474,0.0,0.0
0.08016032064128256,-1.0440239125964859,-0.06854500887978658,0.09776130312178889,0.20408630343244527,0.05219577719856949,0.0,0.0
0.1002004008016032,-1.0454022039573072,-0.06891456804107274,0.10242761891425213,0.23331578962316196,0.42309624926270384,0.0,0.0
0.12024048096192384,-1.0466445420924366,-0.06211690675646942,0.10749204670259074,0.253221389416931,-0.21325682740579166,0.0,0.0
0.1402805611222445,-1.048000443206312,-0.06779505569376379,0.11335617272576069,0.29320630115849733,0.6420731961779024,0.0,0.0
0.16032064128256512,-1.049138019592703,-0.056878819319555504,0.11955980901456756,0.3101818144403434,0.8289376420154759,0.0,0.0
0.18036072144288576,-1.0499861447159469,-0.04240625616219205,0.12603353708904008,0.3236864037236264,1.454381884983928,0.0,0.0
0.2004008016032064,-1.0503028336825566,-0.015834448330486417,0.13245558285456147,0.3211022882760693,1.994541130157879,0.0,0.0
0.22044088176352705,-1.0498794031222243,0.021171528016618868,0.13855393960205045,0.30491783737444933,2.190407492029762,0.0,0.0
0.24048096192384769,-1.0486413125433995,0.06190452894124181,0.14425435868627584,0.2850209542112701,2.5465738285771504,0.0,0.0
0.2605210420841683,-1.0464514701925163,0.1094921175441628,0.14938760972224874,0.25666255179864517,2.82825330829383,0.0,0.0
0.280561122244489,-1.0432016809919862,0.16248946002650805,0.15382421940282998,0.22183048402906208,3.0616274279562337,0.0,0.0
0.3006012024048096,-1.0388023905463222,0.2199645222831988,0.15745836174603237,0.1817071171601197,3.2197167918994394,0.0,0.0
0.32064128256513025,-1.0331931482173777,0.2804621164472231,0.1602226064779847,0.13821223659761644,3.3625348135433124,0.0,0.0
0.3406813627254509,-1.0263191952384922,0.343697648944272,0.1620527502997782,0.09150719108967452,3.4422060148899436,0.0,0.0
0.3607214428857715,-1.0181500840737836,0.40845555823542884,0.16291492032905305,0.043108501463743294,3.5002644602234927,0.0,0.0
0.3807615230460922,-1.0086634825074432,0.47433007831701485,0.16278135290164544,-0.006678371370380035,3.5065823481899656,0.0,0.0
0.4008016032064128,-0.9978568952771887,0.5403293615127263,0.1616475396402933,-0.0566906630676078,3.4883744637054104,0.0,0.0
0.42084168336673344,-0.9857370619345457,0.6059916671321489,0.15951651432110078,-0.10655126595962554,1.8551098883704327,0.0,0.0
0.4408817635270541,-0.9729394831742845,0.6398789380130631,0.15731580557326133,-0.11003543739197295,2.043120899448862,0.0,0.0
0.4609218436873747,-0.9593902895646578,0.6774596804813369,0.1549229230116023,-0.11964412808295163,2.200944061790642,0.0,0.0
0.48096192384769537,-0.9450273034363571,0.7181493064150316,0.15223146515153374,-0.13457289300342742,2.331392921720241,0.0,0.0
0.501002004008016,-0.9297989127562282,0.7614195340064491,0.14914882506346308,-0.1541320044035335,2.430382238329389,0.0,0.0
0.5210420841683366,-0.9136656360885258,0.8066638333851189,0.14559796500186892,-0.1775430030797075,2.5095765772917806,0.0,0.0
0.5410821643286573,-0.8965955563453779,0.8535039871573934,0.14151019837465034,-0.20438833136092943,2.5600017807712776,0.0,0.0
0.561122244488978,-0.8785677979006651,0.901387922235644,0.13682994890545877,-0.2340124734595786,2.580513493519748,0.0,0.0
0.5811623246492986,-0.8595729586075521,0.9497419646556488,0.13151508509981033,-0.26574319028242244,2.571763739674106,0.0,0.0
0.6012024048096192,-0.8396128470723483,0.9980055767601916,0.12553631291328915,-0.29893860932605887,2.5354113741987536,0.0,0.0
0.6212424849699398,-0.8186998324302406,1.045650732105388,0.11887607630151134,-0.3330118305888907,3.024913722575083,0.0,0.0
0.6412825651302605,-0.7966410934980094,1.102936946611562,0.11120735857217623,-0.3834358864667553,2.8475810210150354,0.0,0.0
0.6613226452905812,-0.7735034215170505,1.1568835990479436,0.1025833877272377,-0.4311985422469266,2.6387217877236444,0.0,0.0
0.6813627254509018,-0.7493656452232312,1.206888814690966,0.09306983576419958,-0.47567759815190586,2.3912584802849075,0.0,0.0
0.7014028056112224,-0.7243214231855527,1.2522111018839284,0.08274946484810311,-0.5160185458048235,2.1616193117224354,0.0,0.0
0.721442885771543,-0.6984572720513511,1.2932075567100794,0.07168988247555591,-0.5529791186273596,1.8889597797251798,0.0,0.0
0.7414829659318637,-0.6718763197693038,1.3290476141023606,0.05997944247593478,-0.5855219999810567,1.6195468470928023,0.0,0.0
0.7615230460921844,-0.644680289848235,1.3598014960534426,0.04770086787355354,-0.6139287301190617,1.3170018632291027,0.0,0.0
0.781563126252505,-0.6169837161306837,1.3848286858775667,0.0349529996644861,-0.6373934104533724,1.0254394979693753,0.0,0.0
0.8016032064128256,-0.5888967577043026,1.4043479213190537,0.021825631038963074,-0.6563684312761511,0.6572618166447523,0.0,0.0
0.8216432865731462,-0.5605593979029538,1.4168679900674377,0.008451228725918091,-0.6687201156522491,0.5080614877742095,0.0,0.0
0.8416833667334669,-0.5320261288699957,1.426663451647908,-0.00516718180174288,-0.6809205263830486,0.17049811533770493,0.0,0.0
0.8617234468937875,-0.5034248928259593,1.4300618022018186,-0.01891784172291682,-0.687532996058697,-0.08673344902126756,0.0,0.0
0.8817635270541082,-0.4748522548957578,1.4286318965100744,-0.03273679973737335,-0.6909479007228263,-0.502920783914832,0.0,0.0
0.9018036072144289,-0.4464667831125854,1.4192735891586168,-0.046467672012647954,-0.6865436137637303,-0.7326901481874901,0.0,0.0
0.9218436873747494,-0.4183543100491963,1.4056236531694553,-0.06006270472535982,-0.6797516356355935,-0.9343553279729868,0.0,0.0
0.9418837675350701,-0.3905897214810433,1.3882294284076488,-0.0734899129527349,-0.6713604113687535,-1.4635330800919828,0.0,0.0
0.9619238476953907,-0.3633756811833769,1.3607020148833213,-0.0865255043980178,-0.6517795722641456,-1.6172718708011709,0.0,0.0
0.9819639278557114,-0.3367684496478231,1.3303615767776882,-0.09916267219112089,-0.6318583896551542,-1.8550333613274876,0.0,0.0
1.002004008016032,-0.310857135208617,1.295565721960305,-0.11134349908015823,-0.609041344451867,-2.119562530251346,0.0,0.0
1.0220440881763526,-0.28574136324720567,1.255788598070567,-0.12299208209797706,-0.5824291508909418,-3.8990755683009173,0.0,0.0
1.0420841683366733,-0.2621113893854462,1.1814986930879745,-0.13315110603488917,-0.5079511968456056,-4.013199822436752,0.0,0.0
1.062124248496994,-0.24000845454372632,1.1051467420859946,-0.14182139392682377,-0.4335143945967309,-4.071470971955159,0.0,0.0
1.0821643286573146,-0.219452463837266,1.0277995353230165,-0.1490265949897622,-0.3602600531469218,-4.098352161790781,0.0,0.0
1.1022044088176353,-0.20045153936873789,0.9500462234264054,-0.15479898301642736,-0.2886194013332585,-4.085920993338478,0.0,0.0
1.122244488977956,-0.18299894133572375,0.8726299016507071,-0.1591841066540546,-0.21925618188136206,-4.038040831736059,0.0,0.0
1.1422845691382766,-0.1670745718460409,0.796218474484142,-0.1622387558149379,-0.15273245804416477,-3.9653295173598107,0.0,0.0
1.1623246492985972,-0.15264909927710768,0.7212736284466608,-0.16402516165660191,-0.08932029208319976,-3.866879726792354,0.0,0.0
1.1823647294589177,-0.13968358598078356,0.6482756648162062,-0.164611920764673,-0.029337955403553023,-3.7341261194725193,0.0,0.0
1.2024048096192383,-0.1281261278857797,0.577872904750193,-0.1640794004247644,0.026626016995429456,-3.600388274542555,0.0,0.0
1.222444889779559,-0.11792479997828953,0.5100663953745087,-0.16250112306893627,0.07891386779140622,-4.528932605004584,0.0,0.0
1.2424849699398797,-0.10944174741768528,0.4241526280302123,-0.15933168959232943,0.15847167383034225,-4.008905964288736,0.0,0.0
1.2625250501002003,-0.10247545903902124,0.3483144189332023,-0.15484965964516204,0.22410149735837057,-3.5612138505434254,0.0,0.0
1.282565130260521,-0.09685298336916522,0.28112378349280076,-0.14928358835524785,0.2783035644957097,-3.136917141549269,0.0,0.0
1.3026052104208417,-0.09241077294150654,0.22211052138293397,-0.1428418878369383,0.32208502591547794,-2.7280505804842994,0.0,0.0
1.3226452905811623,-0.08899150217089878,0.17096353853038782,-0.13571888792789522,0.3561499954521542,-2.334809339067694,0.0,0.0
1.342685370741483,-0.0864440765453329,0.12737128127829417,-0.12809603794552799,0.3811424991183608,-1.9542307897396474,0.0,0.0
1.3627254509018036,-0.08462242202327437,0.09108272610292634,-0.1201448025594253,0.3975617693051341,-1.6061967023383217,0.0,0.0
1.3827655310621243,-0.0833931871513095,0.061461743598243704,-0.11201620750695368,0.40642975262358116,-1.2400850734151043,0.0,0.0
1.4028056112224447,-0.0826159729954491,0.03886070779302021,-0.1038711198206938,0.407254384312994,-0.9135766308875473,0.0,0.0
1.4228456913827654,-0.08216577910260195,0.02250969464235741,-0.09584773401881783,0.40116929009379887,-0.35788539922649165,0.0,0.0
1.442885771543086,-0.08182816098480816,0.01688090588968931,-0.08821873527630994,0.3814499371253944,-0.01903676213710731,0.0,0.0
1.4629258517034067,-0.08147307578622934,0.017754259928941196,-0.0811335489747696,0.35425931507701686,-0.018228788394314008,0.0,0.0
1.4829659318637274,-0.08110215603643006,0.018545987489964035,-0.07454826597606416,0.3292641499352716,0.07137063125479896,0.0,0.0
1.503006012024048,-0.08068227380154691,0.020994111744157724,-0.06847384133819419,0.3037212318934987,0.15244363646879533,0.0,0.0
1.5230460921843687,-0.0801834883967377,0.024939270240461116,-0.06291948069140343,0.27771803233953735,0.20992926717116475,0.0,0.0
1.5430861723446894,-0.07958491909810098,0.029928464931836304,-0.05788389796104569,0.2517791365178872,0.23224792264615704,0.0,0.0
1.56312625250501,-0.07887926373592762,0.03528276810866769,-0.05334852995741787,0.22676840018139083,0.22394585347819157,0.0,0.0
1.5831663326653307,-0.07807103102702763,0.0404116354449995,-0.0492800578400517,0.20342360586830885,0.23783044701999267,0.0,0.0
1.6032064128256511,-0.07715594677947483,0.045754212377639436,-0.045661037014426,0.18095104128128506,0.2586176158649857,0.0,0.0
1.6232464929859718,-0.07612691975770028,0.051451351088727774,-0.042480871535730456,0.159008273934777,0.30380926439870176,0.0,0.0
1.6432865731462925,-0.07496721467913556,0.05798525392823602,-0.039745980406366635,0.13674455646819117,0.2720155493214302,0.0,0.0
1.6633266533066131,-0.07369000943078251,0.06386026241765265,-0.03742058923447407,0.11626955859462844,0.23294400710204988,0.0,0.0
1.6833667334669338,-0.07231120750885128,0.06894009609656104,-0.03546723557877262,0.09766768278507262,0.19052721264083128,0.0,0.0
1.7034068136272544,-0.070847913571056,0.07316469688976397,-0.03384883452153759,0.08092005286175122,0.14385598676950095,0.0,0.0
1.723446893787575,-0.0693187981937137,0.07645576886711544,-0.03252791628411123,0.066045911871318,0.08888776408958583,0.0,0.0
1.7434869739478958,-0.06774568553502734,0.07865563293431806,-0.03146402883474533,0.05319437246829478,0.03745751813837324,0.0,0.0
1.7635270541082164,-0.06614894661880054,0.07983694581134042,-0.030620403532180752,0.04218126512822907,-0.012731700675263788,0.0,0.0
1.783567134268537,-0.06454840581171224,0.08002704035441492,-0.029962382228420622,0.03290106518800654,-0.06103523014163785,0.0,0.0
1.8036072144288577,-0.0629630989869357,0.07926534123882735,-0.029457576895707976,0.025240266635632294,-0.11205086761058142,0.0,0.0
1.8236472945891782,-0.061413076711506955,0.07750111377143704,-0.029072978074529493,0.019229941058924165,-0.26596028872341443,0.0,0.0
1.8436873747494988,-0.059958504689278776,0.07272860111140897,-0.02871617203741824,0.017840301855562575,-0.26108077777236305,0.0,0.0
1.8637274549098195,-0.05859758113197974,0.06804617786495157,-0.028387761356277744,0.016420534057024833,-0.28732683556216243,0.0,0.0
1.8837675350701402,-0.057340641407266794,0.06284698623564752,-0.02807032852708738,0.015871641459518193,-0.273087849121231,0.0,0.0
1.9038076152304608,-0.05618222037408631,0.05792105165902421,-0.027770196920992796,0.01500658030472922,-0.3215498032849427,0.0,0.0
1.9238476953907815,-0.05514131407879534,0.052045314764548406,-0.027457137024073826,0.015652994845948513,-0.27930565414722236,0.0,0.0
1.9438877755511021,-0.05420152841217053,0.04698928333124034,-0.027153874913332772,0.015163105537052756,-0.3399767877543671,0.0,0.0
1.9639278557114228,-0.053386624460851816,0.040745197565935816,-0.026823021693579318,0.016542660987672715,-0.2929940133191937,0.0,0.0
1.9839679358717435,-0.05267836416183314,0.035413014950933686,-0.0264899623720083,0.016652966078550907,-0.3467576937139537,0.0,0.0
2.004008016032064,-0.052097821893619056,0.0290271134107044,-0.02612115831996754,0.018440202602037967,-0.30119553957575096,0.0,0.0
2.024048096192385,-0.05162732477520013,0.02352485592094638,-0.025740924942564046,0.01901166887017464,-0.9410838727150815,0.0,0.0
2.0440881763527052,-0.05151667082388941,0.005532697565535937,-0.02497268805410851,0.03841184442277677,-0.5566272727798984,0.0,0.0
2.064128256513026,-0.05161606336594256,-0.004969627102657283,-0.024036408835105195,0.04681396095016565,-0.6052588734182359,0.0,0.0
2.0841683366733466,-0.05194474797009314,-0.016434230207529005,-0.022897737843040295,0.056933549603244975,-0.46055048501890716,0.0,0.0
2.1042084168336674,-0.05244658514465263,-0.02509185872797459,-0.021634111111978077,0.06318133655311095,-0.45385551426981685,0.0,0.0
2.124248496993988,-0.05311932520658733,-0.03363700309673519,-0.020241469323858154,0.06963208940599609,-0.35611605371282007,0.0,0.0
2.1442885771543083,-0.0539252285920861,-0.04029516927493844,-0.018768185582062773,0.07366418708976899,-0.38268783257228667,0.0,0.0
2.164328657314629,-0.05487508663192378,-0.047492901991884016,-0.01718942426414648,0.07893806589581467,-0.25849354682307063,0.0,0.0
2.1843687374749496,-0.05592088945443529,-0.05229014112557539,-0.015567862621217036,0.08107808214647223,-0.14833881808112115,0.0,0.0
2.2044088176352705,-0.05702011739593015,-0.05496139707474304,-0.013957701220199015,0.0805080700509011,-0.05844659080895999,0.0,0.0
2.224448897795591,-0.05813815394372841,-0.055901827389913034,-0.0124013646357355,0.07781682922317569,-0.13171734557952497,0.0,0.0
2.244488977955912,-0.059304036634859676,-0.05829413455656318,-0.010846181788911505,0.07775914234119975,-0.10266797977903488,0.0,0.0
2.2645290581162323,-0.0605068753363834,-0.06014193507618637,-0.009299337274132524,0.07734222573894907,-0.001022705635502913,0.0,0.0
2.284569138276553,-0.06170744884339057,-0.06002867535035841,-0.007810533443859013,0.07444019151367554,-0.008608073906967346,0.0,0.0
2.3046092184368736,-0.06290914358776895,-0.06008473721891905,-0.0063659456435137506,0.07222939001726308,0.049980328031600865,0.0,0.0
2.3246492985971945,-0.06408951075012691,-0.059018358117898205,-0.004990736713740156,0.0687604464886797,0.06971803667442872,0.0,0.0
2.344689378757515,-0.06524124212361257,-0.05758656867428283,-0.00368778118402421,0.06514777648579732,0.05510204217606641,0.0,0.0
2.3647294589178354,-0.06637041452667246,-0.056458620152994236,-0.002440313304281342,0.06237339398714343,0.14066249406296927,0.0,0.0
2.3847695390781563,-0.06744399748588385,-0.053679147960569815,-0.001290517325079204,0.0574897989601069,0.12601449004961626,0.0,0.0
2.4048096192384767,-0.06846803648578231,-0.05120194999492307,-0.00022257430462825438,0.053397151022547475,0.14833802000482393,0.0,0.0
2.4248496993987976,-0.06943412633797763,-0.04830449260976602,0.0007571913703615595,0.04898828374949069,-0.030828487572052893,0.0,0.0
2.444889779559118,-0.07041246327267735,-0.048916846734985815,0.0017597656932690049,0.05012871614537227,0.09903676981927786,0.0,0.0
2.464929859719439,-0.0713526578134094,-0.04700972703660245,0.0027155032037573215,0.04778687552441583,0.058362498198347615,0.0,0.0
2.4849699398797593,-0.07227085603672434,-0.04590991116574734,0.0036542241343468563,0.04693604652947674,0.1422338633926886,0.0,0.0
2.50501002004008,-0.07313459822147128,-0.04318710923734737,0.004532785942003455,0.043928090382829965,0.1326057705225227,0.0,0.0
2.5250501002004007,-0.07394789332935817,-0.04066475539434453,0.005362361218390935,0.04147876381937396,0.1628868768589083,0.0,0.0
2.5450901803607215,-0.07469916270391608,-0.03756346872789527,0.006130468182989233,0.038405348229914905,0.18557485669928864,0.0,0.0
2.565130260521042,-0.07537977312465095,-0.0340305210367439,0.006828679320526397,0.03491055687685817,0.2048082532797203,0.0,0.0
2.5851703406813624,-0.07598241942087747,-0.030132314811325736,0.007450147284771201,0.031073398212240224,0.2195937918431508,0.0,0.0
2.6052104208416833,-0.07650151010287624,-0.025954534099938746,0.007990142687093936,0.02699977011613678,0.23172432927718223,0.0,0.0
2.6252505010020037,-0.07693246638195501,-0.021547813953938726,0.008444975470777587,0.02274163918418255,0.09245800540557658,0.0,0.0
2.6452905811623246,-0.07732976375489165,-0.01986486864683141,0.00889897807999125,0.022700130460683126,0.13760209434289444,0.0,0.0
2.665330661322645,-0.0776759160521251,-0.017307614861672465,0.009328606647590896,0.021481428379982282,0.15241102985805258,0.0,0.0
2.685370741482966,-0.0779652676387211,-0.014467579329799857,0.009727908222324949,0.019965078736702623,0.17472574453997086,0.0,0.0
2.7054108216432864,-0.0781892252645354,-0.011197881290715339,0.010086348233797272,0.017922000573616106,0.1892287231222713,0.0,0.0
2.7254509018036073,-0.07834223229900547,-0.007650351723504079,0.010397703921511315,0.015567784385702176,0.20371419327184404,0.0,0.0
2.7454909819639277,-0.07841872545252059,-0.003824657675755778,0.010655465885307842,0.012888098189826405,0.21438473038267886,0.0,0.0
2.7655310621242486,-0.07841461475003415,0.00020553512432144785,0.010855018263584246,0.009977618913820208,0.22126882294463265,0.0,0.0
2.785571142284569,-0.0783272710864363,0.004367183179892265,0.010993592920706886,0.00692873285613198,0.22382481945830446,0.0,0.0
2.8056112224448895,-0.0781557367940787,0.00857671461788047,0.011070568789537041,0.0038487934415077883,0.22439178144310942,0.0,0.0
2.8256513026052104,-0.07789981270771518,0.01279620431817581,0.011086099742148052,0.0007765476305505062,0.11001308492401445,0.0,0.0
2.845691382765531,-0.07760413643105182,0.01478381383316787,0.011107187531697298,0.0010543894774623565,0.13650523847990118,0.0,0.0
2.8657314629258517,-0.07725837617267822,0.017288012918679922,0.011118469031506784,0.0005640749904742988,0.1523113047895206,0.0,0.0
2.885771543086172,-0.07685636728319853,0.020100444473984597,0.011110769913530166,-0.0003849558988309,0.1570037828650639,0.0,0.0
2.905811623246493,-0.07639627644491913,0.02300454191396987,0.01108129684156427,-0.0014736535982947684,0.16471139982583216,0.0,0.0
2.9258517034068134,-0.07587508752265332,0.026059446113290634,0.011025355505059108,-0.0027970668252581404,0.17009971170771312,0.0,0.0
2.9458917835671343,-0.07529068183779665,0.029220284242833162,0.010939441298009753,-0.004295710352467741,0.1700158215061407,0.0,0.0
2.9659318637274548,-0.07464306749519237,0.03238071713021387,0.010823061450392779,-0.005818992380848706,0.17111849542478974,0.0,0.0
2.9859719438877756,-0.07393178084091497,0.035564332713870286,0.010674836990853528,-0.007411222976962514,0.17061591995061695,0.0,0.0
3.006012024048096,-0.07315697549581274,0.038740267255111586,0.010494127076423937,-0.009035495721479526,0.1676812364303406,0.0,0.0
3.0260521042084165,-0.07231974483150573,0.04186153321535051,0.010281508616647313,-0.010630922988831205,0.11011359657731093,0.0,0.0
3.0460921843687374,-0.07144249211128295,0.043862636011138864,0.01006931418653802,-0.010609721505464588,0.12548998612218004,0.0,0.0
3.066132264529058,-0.07051915628978593,0.04616679107485094,0.009847211368444055,-0.011105140904698291,0.11896738726895298,0.0,0.0
3.0861723446893787,-0.06955221897077704,0.048346865950444476,0.009617614825671104,-0.011479827138647543,0.12121751865293229,0.0,0.0
