time,x,x_dot,theta,theta_dot,u,x_ref,theta_ref
0.0,-0.7343427205959934,-0.09107902806475097,0.05163729193647082,-0.03850379230464627,-3.517739470192492,0.0,0.0
0.02004008016032064,-0.7375515179393403,-0.16043986716734265,0.05324727254021261,0.08049903018708934,-3.066978565196964,0.0,0.0
0.04008016032064128,-0.7419721063545746,-0.2210294207617153,0.056983980370457696,0.18683539151225445,-1.8704627491131225,0.0,0.0
0.06012024048096192,-0.7471386807507374,-0.2583287198081441,0.06217182843913786,0.25939240343400854,-1.1333811693236913,0.0,0.0
0.08016032064128256,-0.7527650935161786,-0.2813206382720595,0.06841277811814467,0.31204748395034043,-0.45339873159449273,0.0,0.0
0.1002004008016032,-0.758587785847708,-0.29113461657647205,0.07534897731709465,0.34680995994749914,-0.1625844886989266,0.0,0.0
0.12024048096192384,-0.7644952272604895,-0.2953720706390706,0.08285421665837574,0.3752619670640542,0.21675828468401803,0.0,0.0
0.1402805611222445,-0.7703415277152887,-0.2923150227399614,0.09075443789171629,0.3950110616670279,0.9073853128810686,0.0,0.0
0.16032064128256512,-0.7758595350041144,-0.2759003644412844,0.0986971232611785,0.3971342684731101,1.909615394292893,0.0,0.0
0.18036072144288576,-0.7806606732126067,-0.24005691042461458,0.1061494419224603,0.37261593306409047,2.0321364084049174,0.0,0.0
0.2004008016032064,-0.7846993559598467,-0.20193413736200297,0.11308782313616017,0.3469190606849939,2.284587923670337,0.0,0.0
0.22044088176352705,-0.787879207158546,-0.15899255993496003,0.11941011088215771,0.31611438729987695,2.4779655937889,0.0,0.0
0.24048096192384769,-0.7901267297046654,-0.11237612730596837,0.12504475803338613,0.2817323575614212,2.6658206034871665,0.0,0.0
0.2605210420841683,-0.7913703981874831,-0.06218342414088919,0.1299192047795586,0.24372233730862253,2.8666213868069947,0.0,0.0
0.280561122244489,-0.791533434398901,-0.008151810570893245,0.13394866968391098,0.20147324521761859,2.916746949653456,0.0,0.0
0.3006012024048096,-0.7905975443350827,0.04679450319091423,0.1371303058917305,0.1590818103909767,2.941626824791854,0.0,0.0
0.32064128256513025,-0.7885540165228724,0.10217639061051165,0.13947041003428423,0.11700520712768672,2.9454216063515313,0.0,0.0
0.3406813627254509,-0.7854020985902894,0.15759589662914905,0.14098202078659802,0.07558053761568997,2.9193373024418166,0.0,0.0
0.3607214428857715,-0.7811524256958583,0.21248364472155576,0.14169006931596007,0.03540242646810274,2.860538211620157,0.0,0.0
0.3807615230460922,-0.775828132002384,0.2662146846737149,0.14163317102833514,-0.0028449143812459346,2.7856475778123584,0.0,0.0
0.4008016032064128,-0.7694583858104093,0.3184873095987383,0.14085426927215314,-0.03894508780909983,2.7151788506838317,0.0,0.0
0.42084168336673344,-0.7620704114768139,0.36939871667977187,0.139389067556692,-0.07326008577305629,0.992651501107163,0.0,0.0
0.4408817635270541,-0.7543349930815255,0.3867709197644197,0.13822452282061334,-0.05822723680393237,1.1705132327204912,0.0,0.0
0.4609218436873747,-0.7461824973098766,0.4076247885824467,0.13725038458605068,-0.04870691172813357,1.3902808710859886,0.0,0.0
0.48096192384769537,-0.7375270087072826,0.4327744301297006,0.13633331757503603,-0.04585335055073264,1.5494414371752396,0.0,0.0
0.501002004008016,-0.7283062413566772,0.4610383675302682,0.13537538471399002,-0.04789664305230044,1.6885659329353861,0.0,0.0
0.5210420841683366,-0.7184657022345887,0.49202695610442326,0.13428995771269014,-0.0542713500649933,1.8363804620948696,0.0,0.0
0.5410821643286573,-0.7079474715396608,0.5259115347464001,0.13298453686207284,-0.06527104253086546,1.982213742320571,0.0,0.0
0.561122244488978,-0.696694333569446,0.5626568985107364,0.1313663301305966,-0.08091033657381269,2.1057450201003363,0.0,0.0
0.5811623246492986,-0.6846576680440292,0.6018332762708388,0.12935341952218316,-0.10064553042067202,2.2039122512685068,0.0,0.0
0.6012024048096192,-0.6717986188601461,0.6429524591941504,0.12687600842579388,-0.12387055481946391,2.276966424813818,0.0,0.0
0.6212424849699398,-0.6580879754964942,0.6855321681825933,0.12387583141888535,-0.15000885034542688,2.248704193995371,0.0,0.0
0.6412825651302605,-0.6435358595235168,0.7276057986488718,0.12034997454133416,-0.1762928438775598,2.2691283774556297,0.0,0.0
0.6613226452905812,-0.6281332587305909,0.7701300396462923,0.11626391909001053,-0.2043027725661813,2.2638011957483433,0.0,0.0
0.6813627254509018,-0.6118810312665485,0.8126113732021232,0.11159448478099275,-0.2334717154508893,2.236588304266514,0.0,0.0
0.7014028056112224,-0.5947883946222409,0.8546318322153791,0.10632746595827011,-0.26335094113613167,2.1956277660251997,0.0,0.0
0.721442885771543,-0.5768697516491508,0.8959321486545047,0.1004528427475968,-0.2937311605336656,2.136951713818345,0.0,0.0
0.7414829659318637,-0.5581462376706388,0.9361756989256025,0.09396705105943007,-0.3242895844083367,2.0470516126647165,0.0,0.0
0.7615230460921844,-0.538650991233363,0.9747623218637893,0.0868808563643496,-0.3543097347540236,1.9646244542257267,0.0,0.0
0.781563126252505,-0.51841407105862,1.01184600873715,0.07919693776526124,-0.38419592995441804,1.8954857336547253,0.0,0.0
0.8016032064128256,-0.49746018919521895,1.0476940931700536,0.07090651795103693,-0.41452099071121523,1.8204429326743146,0.0,0.0
0.8216432865731462,-0.47581619518610346,1.0821997004557742,0.062000496898494496,-0.4453010526271219,2.3881974695567036,0.0,0.0
0.8416833667334669,-0.4532580073106822,1.1279093937710634,0.05209077657709902,-0.4954860160697739,2.1246995712617123,0.0,0.0
0.8617234468937875,-0.4298855224357985,1.1686242437441887,0.04126799347741035,-0.5411391549844335,1.6185592641116655,0.0,0.0
0.8817635270541082,-0.4058930904915673,1.199621597211559,0.029759097263198538,-0.5754448107105907,1.201715893128405,0.0,0.0
0.9018036072144289,-0.381440080277432,1.2226505107067656,0.01773491925547397,-0.6012089003862284,0.8401775903746944,0.0,0.0
0.9218436873747494,-0.3566641756424447,1.2387952317493651,0.005330988987738202,-0.6201965133867884,0.6264001883707114,0.0,0.0
0.9418837675350701,-0.3316453218513431,1.2509426895550777,-0.007405805728766403,-0.6368397358252302,0.22937641005157033,0.0,0.0
0.9619238476953907,-0.30653489567484965,1.2555213088246715,-0.020323388004001693,-0.6458791137617644,-0.022450795343962437,0.0,0.0
0.9819639278557114,-0.2814275718664272,1.2553661904211217,-0.03335573925268751,-0.6516175624342909,-0.32183853008751045,0.0,0.0
1.002004008016032,-0.25643655077237176,1.2495510547027728,-0.04640981527140052,-0.6527038009356503,-0.5470883457796044,0.0,0.0
1.0220440881763526,-0.23164608820217822,1.239523128509677,-0.059436186507353994,-0.6513185617976736,-0.9121125385261619,0.0,0.0
1.0420841683366733,-0.20719496331662304,1.2225562442777584,-0.07230382827569645,-0.6433820884171226,-1.1278364553098403,0.0,0.0
1.062124248496994,-0.1831637200451353,1.2015621635743883,-0.08496819643223691,-0.6332184078270224,-1.3676302080977016,0.0,0.0
1.0821643286573146,-0.15964231918930286,1.1760700427916215,-0.09736973625889224,-0.6200769913327666,-1.687867313234611,0.0,0.0
1.1022044088176353,-0.1367521275654914,1.1445095811905726,-0.10940080833386318,-0.6015536037485466,-1.9997298918537305,0.0,0.0
1.122244488977956,-0.11461129165393844,1.1070417955776488,-0.12095685788233759,-0.577802477423721,-2.2147090181968476,0.0,0.0
1.1422845691382766,-0.09330026197469796,1.0655514839620237,-0.13198711432450644,-0.551512822108443,-2.4984573521635376,0.0,0.0
1.1623246492985972,-0.07292639510406135,1.0186933435318306,-0.14239807318775494,-0.520547943162425,-2.7750056918301365,0.0,0.0
1.1823647294589177,-0.05359435676903991,0.9666019167510718,-0.15209702538085293,-0.4849476096549,-3.010498372896309,0.0,0.0
1.2024048096192383,-0.035392963363294824,0.9100696702872543,-0.16101096618820732,-0.44569704036771884,-3.235476043992061,0.0,0.0
1.222444889779559,-0.018407115824275587,0.8492923769509618,-0.16906836599036956,-0.40286999010811236,-5.010185130924592,0.0,0.0
1.2424849699398797,-0.003325420818361976,0.7540847502956806,-0.17530079457843079,-0.3116214294030608,-5.037801992352484,0.0,0.0
1.2625250501002003,0.009843540838361494,0.6584480828361735,-0.17973471614310144,-0.22169607823353224,-4.994172080557341,0.0,0.0
1.282565130260521,0.02111831757557528,0.5637388368606892,-0.18242537875864448,-0.13453313077715273,-4.911991471739515,0.0,0.0
1.3026052104208417,0.030531859731556824,0.4706771077990772,-0.1834382860563074,-0.05064536488314679,-4.790263041088311,0.0,0.0
1.3226452905811623,0.03813192808359553,0.3800034176019352,-0.18285020020159348,0.029404292735695933,-4.641733151365058,0.0,0.0
1.342685370741483,0.043976164256609454,0.29221180865069635,-0.1807423999965061,0.10539001025436893,-4.464936607043896,0.0,0.0
1.3627254509018036,0.04813270107912708,0.2078268411258813,-0.1772021720611507,0.1770113967677704,-4.258193993901246,0.0,0.0
1.3827655310621243,0.05068086235809127,0.12740806394820964,-0.17232450003587615,0.2438836012637263,-4.00833658428326,0.0,0.0
1.4028056112224447,0.051716341970090715,0.051773980599972166,-0.16622043940265696,0.30520303166095936,-3.73301533480184,0.0,0.0
1.4228456913827654,0.05134439048570919,-0.01859757421907629,-0.15900790422078623,0.36062675909353614,-4.181642751394188,0.0,0.0
1.442885771543086,0.049387969118396324,-0.09782106836564339,-0.15038056252275017,0.4313670849018022,-3.444186916979614,0.0,0.0
1.4629258517034067,0.04613158348974499,-0.16281928143256677,-0.14070684398429115,0.48368592692295076,-2.8636999042974436,0.0,0.0
1.4829659318637274,0.04179841748295074,-0.2166583003397126,-0.13025903012208687,0.5223906931102136,-2.388624444887314,0.0,0.0
1.503006012024048,0.03657047636775826,-0.2613970557596239,-0.11924453717431528,0.5507246473885792,-1.720440574526638,0.0,0.0
1.5230460921843687,0.0307049870614844,-0.2932744653136929,-0.10798016656012653,0.5632185307094375,-1.0227859412033222,0.0,0.0
1.5430861723446894,0.02447073725987901,-0.3117124900802696,-0.09679951473944212,0.5590325910342206,-0.37670133707620135,0.0,0.0
1.56312625250501,0.018116554691525275,-0.3177091284176868,-0.08600785550894427,0.5395829615248929,0.0065700905785920916,0.0,0.0
1.5831663326653307,0.011788965247480587,-0.3163794722022344,-0.0757607011165622,0.5123577196191035,0.5641372439176093,0.0,0.0
1.6032064128256511,0.005702660941694934,-0.3043152152892826,-0.06631897975655228,0.4720860680004965,0.46000469441426517,0.0,0.0
1.6232464929859718,-0.00018553554472296434,-0.2944098243208949,-0.057563008095012365,0.4377985830769956,0.7456052684208325,0.0,0.0
1.6432865731462925,-0.005766603634314501,-0.2790534044795768,-0.049604751013637906,0.39791285406872295,0.8910354831079315,0.0,0.0
1.6633266533066131,-0.01098598941072255,-0.26096928882040243,-0.04247938583918357,0.3562682587227166,0.921604327056212,0.0,0.0
1.6833667334669338,-0.015833733809777303,-0.24238721995273768,-0.03616017966197727,0.31596030886031506,0.9358711927687056,0.0,0.0
1.7034068136272544,-0.020306027360252592,-0.22361467752376446,-0.030615872816207333,0.277215342288497,0.9058429262461393,0.0,0.0
1.723446893787575,-0.02441613794258747,-0.20550552911674383,-0.025794127437638946,0.24108726892841942,0.867521151386901,0.0,0.0
1.7434869739478958,-0.028180374956612495,-0.1882118507012512,-0.021642253810736173,0.2075936813451387,0.8277720520056158,0.0,0.0
1.7635270541082164,-0.03161542167268884,-0.1717523358038171,-0.018110908682004906,0.17656725643656326,0.7819705832995503,0.0,0.0
1.783567134268537,-0.03474015141909297,-0.15623648732020656,-0.015151091787067326,0.147990844746879,0.7221996481224637,0.0,0.0
1.8036072144288577,-0.037578729114492074,-0.14192888476995502,-0.012709215002449975,0.12209383923086753,0.6576450087404129,0.0,0.0
1.8236472945891782,-0.040157040815157384,-0.12891558503326553,-0.01073214335016056,0.09885358261447075,0.3026448214058959,0.0,0.0
1.8436873747494988,-0.04261417969059983,-0.12285694377212208,-0.008999771322637592,0.08661860137614838,0.2916385283133386,0.0,0.0
1.8637274549098195,-0.044954936088343486,-0.11703781988718275,-0.007494741793787076,0.07525147644252579,0.25273671696634326,0.0,0.0
1.8837675350701402,-0.04719492108283799,-0.1119992497247249,-0.006184811856431027,0.06549649686780246,0.2239349995731872,0.0,0.0
1.9038076152304608,-0.04934574881924277,-0.10754138682023939,-0.005044875464293282,0.05699681960688726,0.2080908188615494,0.0,0.0
1.9238476953907815,-0.0514139285437242,-0.10340898622407134,-0.004058477292966523,0.049319908566337944,0.19524245686096814,0.0,0.0
1.9438877755511021,-0.05340475656073021,-0.09954140085030043,-0.0032118821313858424,0.042329758079034024,0.17564854724132817,0.0,0.0
1.9639278557114228,-0.05532612146253987,-0.096068245090483,-0.00248829006268212,0.03617960343518612,0.15732689935314795,0.0,0.0
1.9839679358717435,-0.05718538016562677,-0.09296293515434499,-0.001872420807372585,0.030793462765476745,0.14634849062542774,0.0,0.0
2.004008016032064,-0.05898699321824641,-0.09008065263098206,-0.0013539688183090968,0.025922599453174412,0.12766783544455537,0.0,0.0
2.024048096192385,-0.06073839888082626,-0.0875702831289924,-0.0009187371667821816,0.021761582576345764,-0.40641362341475895,0.0,0.0
2.0440881763527052,-0.0626481343883936,-0.09548677537836738,-0.0002515579889906805,0.033358958889575054,-0.15370653857132693,0.0,0.0
2.064128256513026,-0.06461777809347284,-0.09848218525396178,0.0005039491163109876,0.0377753552650834,-0.08344016171819235,0.0,0.0
2.0841683366733466,-0.06662012676056868,-0.10011743335479195,0.0013114443864835697,0.040374763508629105,0.1094552635714591,0.0,0.0
2.1042084168336674,-0.06858013900223388,-0.09800061208326016,0.0020631812129299995,0.037586841322321485,-0.07184747591653975,0.0,0.0
2.124248496993988,-0.0705687793185503,-0.09943201581582072,0.0028699571574335894,0.04033879722517949,0.26348942730697456,0.0,0.0
2.1442885771543083,-0.07245542179345903,-0.0943321237454368,0.003540697317201044,0.03353700798837271,-0.10522085728845909,0.0,0.0
2.164328657314629,-0.0743841389599132,-0.09643585832270901,0.0042953159513622165,0.03773093170805865,0.31516859532493396,0.0,0.0
2.1843687374749496,-0.07619110035102675,-0.09034806955567701,0.004892657285725504,0.02986706671816435,0.09097187272456908,0.0,0.0
2.2044088176352705,-0.0779639645147697,-0.0886432081871476,0.005467636077849321,0.02874893960619087,0.010110332698239313,0.0,0.0
2.224448897795591,-0.07973445047579822,-0.08852429805142592,0.006071179306402818,0.03017716142767487,-0.06565738886275345,0.0,0.0
2.244488977955912,-0.08153229766182589,-0.08989235930138353,0.006751413998926073,0.03401173462616277,-0.07582100582962621,0.0,0.0
2.2645290581162323,-0.08336166706970449,-0.09146847039393026,0.007518574630622058,0.03835803158479926,0.10479351511496239,0.0,0.0
2.284569138276553,-0.0851522982810708,-0.08953156056831546,0.008271847092333046,0.03766362308554937,0.05275676764244748,0.0,0.0
2.3046092184368736,-0.08692471319801921,-0.08862074584742025,0.009046420640285519,0.03872867739762365,-0.07567618578524281,0.0,0.0
2.3246492985971945,-0.08872925137592261,-0.09022690889516984,0.009922306015956742,0.04379426878356112,0.29152286243765835,0.0,0.0
2.344689378757515,-0.09042287407414926,-0.0846811349113321,0.01069023603608755,0.0383965010065404,0.11926302982096615,0.0,0.0
2.3647294589178354,-0.09207302126885185,-0.08250735973512943,0.011455815387028279,0.038278967547036455,0.2515645520738099,0.0,0.0
2.3847695390781563,-0.09362828537395472,-0.0777632052551436,0.01214648498224319,0.03453347976074561,0.13266374580748574,0.0,0.0
2.4048096192384767,-0.09513526215518615,-0.07534883906157162,0.012836149138605788,0.03448320781812989,0.2799204894635193,0.0,0.0
2.4248496993987976,-0.09653668654961493,-0.07007121972143918,0.013443023985825557,0.030343742360988402,-0.0028177340572855814,0.0,0.0
2.444889779559118,-0.09794306299440918,-0.07031882223971225,0.014136314827715619,0.03466454209450315,0.13252628349601467,0.0,0.0
2.464929859719439,-0.09930177604494941,-0.06793565252701192,0.014841229219789094,0.03524571960367374,0.24658791824440046,0.0,0.0
2.4849699398797593,-0.1005685186041697,-0.0633371279610142,0.015495497945621037,0.03271343629159712,0.1720645850759202,0.0,0.0
2.50501002004008,-0.10177255872647194,-0.06020200611511221,0.01614683602088522,0.03256690376320909,0.3071589388007673,0.0,0.0
2.5250501002004007,-0.10286136676278694,-0.05444040181575016,0.016720336417981627,0.02867501985482047,0.2630062629473266,0.0,0.0
2.5450901803607215,-0.10385233640499238,-0.04954848211027182,0.017245440982508443,0.026255228226340858,0.27133128595827594,0.0,0.0
2.565130260521042,-0.10474236967091322,-0.04450166329604217,0.017720592883465284,0.023757595047842067,0.2945283960528945,0.0,0.0
2.5851703406813624,-0.10552255092044868,-0.039009062476773625,0.01813522209052239,0.02073146035285535,0.33788712767281676,0.0,0.0
2.6052104208416833,-0.10617607978438043,-0.03267644319658699,0.01846658526111564,0.016568158529662473,0.34881581541313395,0.0,0.0
2.6252505010020037,-0.10669878679062035,-0.026135350311996052,0.018710381182900047,0.01218979608922036,0.1424958960501386,0.0,0.0
2.6452905811623246,-0.10717125125155948,-0.023623223046956583,0.01898881545137297,0.013921713423646068,0.2438602947415191,0.0,0.0
2.665330661322645,-0.10755399895097142,-0.0191373849705971,0.019244360669724597,0.012777260917581357,0.21338375466409543,0.0,0.0
2.685370741482966,-0.10785899557503213,-0.015249831203035403,0.019496452884923444,0.012604610759942363,0.24595073279107477,0.0,0.0
2.7054108216432864,-0.10807360525220085,-0.010730483858435943,0.019727635395872196,0.01155912554743762,0.27960548646481903,0.0,0.0
2.7254509018036073,-0.10818476167548972,-0.005557821164444014,0.019919683652585406,0.009602412835660483,0.3227005725813737,0.0,0.0
2.7454909819639277,-0.10817570358320315,0.0004529046143287446,0.020048605358231573,0.00644608528230837,0.3494959913610161,0.0,0.0
2.7655310621242486,-0.10803601199970068,0.0069845791751232825,0.020099542848998786,0.002546874538360667,0.3739586998089973,0.0,0.0
2.785571142284569,-0.10775615584201369,0.013992807884349628,0.020058510781485586,-0.0020516033756600707,0.3667684174036766,0.0,0.0
2.8056112224448895,-0.10733892909576993,0.020861337312187967,0.019929455431502107,-0.006452767499173944,0.35731025748911627,0.0,0.0
2.8256513026052104,-0.10678798544658893,0.027547182459050017,0.01971709406539381,-0.010618068305414816,0.2531079015507923,0.0,0.0
2.845691382765531,-0.10614392528381834,0.03220300813852921,0.019481028894410744,-0.011803258549153203,0.2568583864626381,0.0,0.0
2.8657314629258517,-0.10540521742735719,0.03693539282305773,0.019217577442956317,-0.013172572572721296,0.25996653126814184,0.0,0.0
2.885771543086172,-0.10457057349182194,0.04173219677676201,0.018923260136322444,-0.014715865331693693,0.262612831071658,0.0,0.0
2.905811623246493,-0.10363887645679105,0.04658485175154469,0.01859467279275128,-0.016429367178558182,0.2625721903906532,0.0,0.0
2.9258517034068134,-0.10261004795884608,0.05144142489724866,0.018229766517070298,-0.018245313784049165,0.2653224294126564,0.0,0.0
2.9458917835671343,-0.10148291017102283,0.05635688939116271,0.017824631042260626,-0.020256773740483604,0.25684902301696694,0.0,0.0
2.9659318637274548,-0.10026065338264113,0.06111283941908507,0.01738166665549332,-0.022148219338365364,0.25323241680902714,0.0,0.0
2.9859719438877756,-0.09894456183594905,0.0658045773346045,0.016900194513904256,-0.02407360707945321,0.23566862245056597,0.0,0.0
3.006012024048096,-0.09754135117650643,0.07016053297213048,0.01638745032314605,-0.025637209537910398,0.23160458105518772,0.0,0.0
3.0260521042084165,-0.09605246025315538,0.07444454616755249,0.015842576968996536,-0.027243667707475612,0.18024024977726363,0.0,0.0
3.0460921843687374,-0.09449777617294378,0.07773420401057986,0.015292180172248726,-0.027519839837390536,0.16482601179050257,0.0,0.0
3.066132264529058,-0.09288315610660677,0.08073100331685024,0.014741804409906413,-0.027518788117115632,0.2036176372751275,0.0,0.0
3.0861723446893787,-0.09119330504250367,0.08449255320515495,0.01416528941999313,-0.02882574949566421,0.15764548749073506,0.0,0.0
3.106212424849699,-0.08944599696612497,0.08736540381893461,0.013585888478359771,-0.02897004708166796,0.17116536448760558,0.0,0.0
