time,x,x_dot,theta,theta_dot,u,x_ref,theta_ref
0.0,1.8240068385159014,-0.058463637984170626,0.1313779541098123,-0.07014357538359595,9.999999999999982,0.0,0.0
0.02004008016032064,1.8266977690849935,0.13454652845460116,0.12500806301115952,-0.3184945549326378,9.999999999999996,0.0,0.0
0.04008016032064128,1.8332513564870705,0.3276793701038513,0.1136256663774602,-0.569119831684966,9.999999999999758,0.0,0.0
0.06012024048096192,1.8436719963444228,0.5210319928676198,0.09714996133012986,-0.823785252366517,9.999999999999991,0.0,0.0
0.08016032064128256,1.857965844688585,0.7146924172081086,0.07546543796981685,-1.0842261680156504,7.558166112267733,0.0,0.0
0.1002004008016032,1.8751880494437212,0.8611102377568114,0.0498466564954106,-1.2809390737203126,8.107805107229751,0.0,0.0
0.12024048096192384,1.8955608900578071,1.0186420307042932,0.019803533472436026,-1.5021561511487285,0.49561411246543496,0.0,0.0
0.1402805611222445,1.916122323696844,1.0280716819518492,-0.01040588251912251,-1.5104707995779267,0.31952302495771523,0.0,0.0
0.16032064128256512,1.9368109618237463,1.0344319063451102,-0.040867123006737546,-1.5230620243807518,-1.682359572578946,0.0,0.0
0.18036072144288576,1.956853030137605,1.002103415692933,-0.07060000557435889,-1.4866441283810667,-4.292059335584925,0.0,0.0
0.2004008016032064,1.9752379554837989,0.9192462673096884,-0.09826943888313415,-1.3834716654387633,0.02094613683189195,0.0,0.0
0.22044088176352705,1.9936553544480082,0.9208699482104732,-0.12656385175314508,-1.4147206435005462,-7.77235036031839,0.0,0.0
0.24048096192384769,2.0090742356276894,0.7709440589840594,-0.15114099702428657,-1.228857263557075,-1.915625149403371,0.0,0.0
0.2605210420841683,2.023784993372933,0.7355378872621785,-0.17555349840815065,-1.2206250691932035,-5.317441927541285,0.0,0.0
0.280561122244489,2.036469481595386,0.6342244111226601,-0.1980014994592898,-1.1224000525569566,-3.9549933612075128,0.0,0.0
0.3006012024048096,2.0476652880938535,0.5597903249233749,-0.21941740893164588,-1.0707954736178036,-4.978152256557526,0.0,0.0
0.32064128256513025,2.05698102723926,0.4657869572703232,-0.23936159764834578,-0.9972094358349947,-5.856951150546189,0.0,0.0
0.3406813627254509,2.0640817542655787,0.3550363513159355,-0.2574731850723147,-0.9055793711984476,-6.6259140512561645,0.0,0.0
0.3607214428857715,2.0686752724711193,0.2296759102770312,-0.27344653580724865,-0.7986675367466978,-7.138925463756662,0.0,0.0
0.3807615230460922,2.0705685649091414,0.09466462190111799,-0.28710938166545125,-0.683142292910129,-7.586470580813178,0.0,0.0
0.4008016032064128,2.069593507097167,-0.04875289059871543,-0.2983124621086782,-0.560154022161346,-7.943420414657306,0.0,0.0
0.42084168336673344,2.065616406296617,-0.19885504002749582,-0.3069411469833813,-0.43143424373515643,-0.7719860932249905,0.0,0.0
0.4408817635270541,2.0614209744699292,-0.20977159133439066,-0.31703333477600576,-0.5046093896312223,-2.149140596983647,0.0,0.0
0.4609218436873747,2.056475578355542,-0.24726980571935528,-0.32788924593712626,-0.5427955580560248,-2.6767009905673467,0.0,0.0
0.48096192384769537,2.0505784225400947,-0.29485779077236396,-0.33928686482165127,-0.5698809442262506,-3.5602613046429066,0.0,0.0
0.501002004008016,2.043390265982202,-0.35940782789463044,-0.3508152468541873,-0.5764191016268019,-4.488934727063837,0.0,0.0
0.5210420841683366,2.0345549142858044,-0.44176758481988404,-0.3620442536825149,-0.5614503414163807,-5.339473827962147,0.0,0.0
0.5410821643286573,2.0237468199964352,-0.5404047144684602,-0.3725890174615777,-0.5272381889531392,-6.185009146525624,0.0,0.0
0.561122244488978,2.01064263290421,-0.655209354611248,-0.38206710282362943,-0.4739042681025869,-6.962780852576703,0.0,0.0
0.5811623246492986,1.9949452757683688,-0.7848678567920717,-0.39012908059955526,-0.40309888879629213,-7.629443994237353,0.0,0.0
0.6012024048096192,1.9764004388577738,-0.9272418455297416,-0.39647805874355846,-0.3174489072001593,-8.190878445204095,0.0,0.0
0.6212424849699398,1.9547940378583877,-1.0803200499693093,-0.40086285283839884,-0.21923970474201923,-9.999999999999986,0.0,0.0
0.6412825651302605,1.9294298320260166,-1.2682102916185547,-0.4023540522458719,-0.07455997037365403,-9.999999999999988,0.0,0.0
0.6613226452905812,1.9003087263521257,-1.4560552836945417,-0.4009642544514201,0.06948988972259004,-9.999999999999982,0.0,0.0
0.6813627254509018,1.8674301811909129,-1.6439272580606372,-0.39668213774827443,0.21410583515728243,-9.999999999997616,0.0,0.0
0.7014028056112224,1.8307922101688814,-1.831898551101571,-0.3894724009322223,0.36048684080260696,-9.999999832529015,0.0,0.0
0.721442885771543,1.7903913698364238,-2.0200420166228823,-0.3792755699686531,0.5098415481784598,-9.804173807693603,0.0,0.0
0.7414829659318637,1.7462984011058047,-2.2046484365309515,-0.36611303816574137,0.6581265901455863,-9.345373845620127,0.0,0.0
0.7615230460921844,1.698684406273676,-2.380699741606436,-0.3501257361048113,0.7993651030465042,-8.824653678897949,0.0,0.0
0.781563126252505,1.6477435039123893,-2.5470451180643225,-0.3314694417288774,0.9328147187966949,-8.218376125811703,0.0,0.0
0.8016032064128256,1.5937022644350176,-2.7020619738685854,-0.3103308876765245,1.0569277026176427,-7.595520935406646,0.0,0.0
0.8216432865731462,1.5367933035191987,-2.8454480457909477,-0.28689326144134314,1.1718813117590694,-8.118692494363634,0.0,0.0
0.8416833667334669,1.4768044636442064,-2.9994419937496204,-0.2606902542259524,1.3101503607695386,-7.503768284922024,0.0,0.0
0.8617234468937875,1.413964061476732,-3.1420201083737225,-0.23187161551802055,1.4409319353965921,-5.634213255375763,0.0,0.0
0.8817635270541082,1.3489880855484921,-3.248798796411993,-0.20128766859199176,1.529197346301439,-4.478297346618074,0.0,0.0
0.9018036072144289,1.2823165456902055,-3.333576992914338,-0.16938814356051246,1.5949762515739647,-4.973724833458231,0.0,0.0
0.9218436873747494,1.213747334124829,-3.428460578268817,-0.13567522944717658,1.6856457056667935,-2.725752213865018,0.0,0.0
0.9418837675350701,1.1441467580632816,-3.4800288030773734,-0.10122527132434313,1.7224979061416725,-2.723072432223572,0.0,0.0
0.9619238476953907,1.0735073110509132,-3.531972350618419,-0.06581976946192769,1.770275093120772,-1.3026134743667757,0.0,0.0
0.9819639278557114,1.0023744966003465,-3.556640722528336,-0.030062779444768484,1.7878495008579602,0.19126673428232732,0.0,0.0
1.002004008016032,0.9313230513397838,-3.552572263028138,0.0053956560162702755,1.7729217730519378,0.7507185524299564,0.0,0.0
1.0220440881763526,0.8605633397505213,-3.5379855794631205,0.04044847715268374,1.752641056820673,0.7582565131785421,0.0,0.0
1.0420841683366733,0.7900903275223055,-3.523650611410793,0.07530949307257942,1.7430507959947845,1.8662183742054073,0.0,0.0
1.062124248496994,0.7203282232350667,-3.488105214361935,0.10954995880332677,1.7120232865373675,2.6509009698043786,0.0,0.0
1.0821643286573146,0.6515747899762244,-3.437671662942114,0.1429298917853916,1.6689966491032409,3.1317947244712645,0.0,0.0
1.1022044088176353,0.5840090310314546,-3.3782879472384915,0.17538462696995896,1.6227367592283684,4.036046664276211,0.0,0.0
1.122244488977956,0.5179745514564849,-3.301723978748488,0.20660443365560868,1.560990334282486,5.0155190101008245,0.0,0.0
1.1422845691382766,0.4538436041350325,-3.206547366072617,0.23623686725827456,1.4816216801332933,5.726173786380498,0.0,0.0
1.1623246492985972,0.39188326649987004,-3.0980168817581224,0.2640811235975341,1.392212816962978,6.503163669400724,0.0,0.0
1.1823647294589177,0.33238600825920617,-2.974862912033195,0.2898949236020794,1.2906900002272652,7.208261078987099,0.0,0.0
1.2024048096192383,0.27561608039582564,-2.8384963931690272,0.3134706350904487,1.1787855744184659,7.832787805583979,0.0,0.0
1.222444889779559,0.22180640753754666,-2.6904836429139487,0.3346370223123178,1.058319361093454,9.99999999998624,0.0,0.0
1.2424849699398797,0.1717873580350493,-2.500952475124868,0.3523661708886939,0.8864574288188038,9.999999992153324,0.0,0.0
1.2625250501002003,0.1255500778764894,-2.3118640079279955,0.36680256151846674,0.7218195314886442,9.999999999999998,0.0,0.0
1.282565130260521,0.08308724742759044,-2.1231415224449477,0.37806464206721163,0.5631040274372435,9.999999999999993,0.0,0.0
1.3026052104208417,0.044393082021776054,-1.9347082702907192,0.38624530149956415,0.40903297161762653,9.99999999999336,0.0,0.0
1.3226452905811623,0.009463319217332879,-1.7464881402221586,0.3914122980839734,0.25834982922046235,9.999999999999993,0.0,0.0
1.342685370741483,-0.021704797784555002,-1.558405850094394,0.3936086021772787,0.10981520466526787,9.999999807404759,0.0,0.0
1.3627254509018036,-0.04911253434922161,-1.3703868282333302,0.3928526276079653,-0.03779872846567109,9.999999999869978,0.0,0.0
1.3827655310621243,-0.07275967211025759,-1.182356888051799,0.3891383357879599,-0.18571459100026894,9.62818707497717,0.0,0.0
1.4028056112224447,-0.09278808913642189,-1.0014208513082152,0.38263435071090157,-0.3251992538529176,8.789514931373514,0.0,0.0
1.4228456913827654,-0.10951873423086243,-0.8365322547220269,0.37373831367179344,-0.44480185195540534,8.425019812062127,0.0,0.0
1.442885771543086,-0.12308854241476316,-0.6784904091950362,0.36257650854784124,-0.5580902561976114,7.494468629198577,0.0,0.0
1.4629258517034067,-0.13385252431086725,-0.5381990948052043,0.34956629021242197,-0.650510916770963,6.653867388146255,0.0,0.0
1.4829659318637274,-0.14213072008572397,-0.413909788742836,0.33506767177314706,-0.7249309219637446,5.894758717267953,0.0,0.0
1.503006012024048,-0.14821164284092558,-0.30404613776008077,0.3193907106993383,-0.7838480536904389,5.153049291400093,0.0,0.0
1.5230460921843687,-0.15237720409495675,-0.20827806270155802,0.3028328068873164,-0.8278951906010936,4.477368074628395,0.0,0.0
1.5430861723446894,-0.15488397161189021,-0.1253383758466725,0.28565388922970103,-0.8589458828807692,3.847235490514355,0.0,0.0
1.56312625250501,-0.15597113052381562,-0.05435794559627016,0.26808898405774173,-0.8782452585979641,3.24647950485381,0.0,0.0
1.5831663326653307,-0.15586677023172946,0.0052180146043077635,0.2503582956381265,-0.8865344209807625,2.700898756658903,0.0,0.0
1.6032064128256511,-0.15477786916132746,0.05444505352009915,0.23265359776238437,-0.885234893787107,2.1855513218150717,0.0,0.0
1.6232464929859718,-0.15289995728578698,0.09389559377702418,0.21515283787152187,-0.8750379945431251,1.592196349541586,0.0,0.0
1.6432865731462925,-0.15045920037779764,0.122037845399467,0.19808236798253345,-0.8535234944494202,1.1984262640851717,0.0,0.0
1.6633266533066131,-0.14760446556922938,0.14273674042841294,0.18155985392168594,-0.8261257030423748,0.7991135489499093,0.0,0.0
1.6833667334669338,-0.1444870233248184,0.15587211222054878,0.1657110510915089,-0.7924401415088519,0.43270176520356807,0.0,0.0
1.7034068136272544,-0.14124558933099882,0.16207169969097793,0.15064824483294048,-0.7531403129284213,-0.31001819921713136,0.0,0.0
1.723446893787575,-0.13816573643492824,0.15399264480352912,0.13670682916267102,-0.6970707835134738,-0.5663004138999652,0.0,0.0
1.7434869739478958,-0.13534392508717985,0.14109056738741993,0.12394945926972514,-0.637868494647294,-0.6708716139289647,0.0,0.0
1.7635270541082164,-0.13281775914694235,0.12630829701187518,0.11235838435453854,-0.5795537457593303,-0.6807419852180923,0.0,0.0
1.783567134268537,-0.1305881647614872,0.11147971927275777,0.10186795188142325,-0.5245216236557645,-0.7899574754504733,0.0,0.0
1.8036072144288577,-0.1286950296160034,0.09465675727419023,0.0924768529946252,-0.46955494433990275,-0.8425966898006247,0.0,0.0
1.8236472945891782,-0.12715643575049165,0.07692969327558692,0.0841576129018488,-0.41596200463882027,-1.6918687100667276,0.0,0.0
1.8436873747494988,-0.12630142515029325,0.04275053000992051,0.0773534346701758,-0.3402089115836494,-1.3597116995845586,0.0,0.0
1.8637274549098195,-0.12599867785652896,0.015137364688214826,0.07182875931154681,-0.2762337679314499,-1.0598028089505724,0.0,0.0
1.8837675350701402,-0.12612974105635638,-0.00655315999137111,0.06737444281782728,-0.22271582468597628,-0.9034008742720409,0.0,0.0
1.9038076152304608,-0.12663240013628954,-0.025132953996657666,0.06387152298123026,-0.1751459918298511,-0.6600057477200162,0.0,0.0
1.9238476953907815,-0.1274107485237881,-0.038917419374927945,0.061156110929812074,-0.1357706025709095,-0.45228493708818196,0.0,0.0
1.9438877755511021,-0.12838300126854146,-0.04861263723766917,0.05908997969199446,-0.10330656189088075,-0.37993316397661436,0.0,0.0
1.9639278557114228,-0.12952035741346285,-0.05686780724606895,0.057617946931408016,-0.0736016380293224,-0.07624013476324987,0.0,0.0
1.9839679358717435,-0.13070392606211523,-0.05917843243261954,0.056553469276181025,-0.053223882761349706,0.20559214395325237,0.0,0.0
2.004008016032064,-0.13182345490937653,-0.05597644236306504,0.055725294972471896,-0.04140871518545646,0.3051074813196365,0.0,0.0
2.024048096192385,-0.13283988427196855,-0.050821468129601775,0.055070098562643915,-0.032759820491399055,-0.3646631588172964,0.0,0.0
2.0440881763527052,-0.1340143317795979,-0.058722375381467795,0.05497486859672967,-0.004761498295712468,-0.30726476929351526,0.0,0.0
2.064128256513026,-0.13532437815166895,-0.0655023186035528,0.05540549041652374,0.021531090989703672,0.017103574767206142,0.0,0.0
2.0841683366733466,-0.13664359648837487,-0.06596091683529559,0.056175254736602995,0.03848821600396282,0.37809727500162704,0.0,0.0
2.1042084168336674,-0.1378313681422286,-0.059388582692686424,0.05707821360541117,0.045147943440408726,0.5804862587843881,0.0,0.0
2.124248496993988,-0.13880899188222812,-0.04888118699997529,0.058001888689035504,0.046183754181216834,0.7569353833502748,0.0,0.0
2.1442885771543083,-0.13950789400467123,-0.03494510612215582,0.058849092113629944,0.04236017122972218,0.8347058409640188,0.0,0.0
2.164328657314629,-0.13989797761267786,-0.019504180400331025,0.0595797754542423,0.03653416703061759,0.878779429523,0.0,0.0
2.1843687374749496,-0.13996225887805486,-0.00321406326884989,0.06017283028277226,0.029652741426498225,0.9234199405323527,0.0,0.0
2.2044088176352705,-0.1396834934506606,0.013938271369712672,0.06060594908706774,0.021655940214774017,0.9621001693802551,0.0,0.0
2.224448897795591,-0.13904671634124074,0.03183885547099376,0.06085929354223629,0.012667222758427589,1.6613339646020076,0.0,0.0
2.244488977955912,-0.13777921531368867,0.06337505137760349,0.06052630190263972,-0.016649581979828798,1.4002150856179472,0.0,0.0
2.2645290581162323,-0.13598276179075816,0.08982267614652512,0.0597572843247692,-0.03845087889352608,1.289451424811145,0.0,0.0
2.284569138276553,-0.13370034362804104,0.1141209081358559,0.05861201981237531,-0.05726322561969446,1.2045431767651387,0.0,0.0
2.3046092184368736,-0.1309647532002778,0.1367795213881611,0.05713281427530307,-0.07396027685361177,1.1442791539170556,0.0,0.0
2.3246492985971945,-0.127799072431633,0.15828403843224068,0.05534547665237425,-0.08936688114644106,1.0496218540735667,0.0,0.0
2.344689378757515,-0.12423971300683648,0.17796797123982566,0.05329395563207789,-0.1025760510148182,0.9345024733965924,0.0,0.0
2.3647294589178354,-0.1203309950194961,0.195435899367019,0.05103249214361222,-0.11307317442328337,0.761332378733129,0.0,0.0
2.3847695390781563,-0.11613982872431548,0.20955831475903058,0.048647925525608954,-0.11922833090016312,0.5943158476707495,0.0,0.0
2.4048096192384767,-0.11173069140136954,0.22045686614729693,0.04622275154719395,-0.12125869892075027,0.5034783593804384,0.0,0.0
2.4248496993987976,-0.10713832933419623,0.22961810335866545,0.04379472878896883,-0.12140113791125576,0.7828396252243701,0.0,0.0
2.444889779559118,-0.10225304844816838,0.24426404430139265,0.04118529317288448,-0.13047178080421756,0.8983723003464783,0.0,0.0
2.464929859719439,-0.09702901947237634,0.2612014487896018,0.03831043326420917,-0.1437429954337656,0.7249715629091837,0.0,0.0
2.4849699398797593,-0.091533071868066,0.27479738021551714,0.03525331885263961,-0.15285572057847827,0.494254823498932,0.0,0.0
2.50501002004008,-0.08585435021813186,0.2839360824967076,0.03212950198830552,-0.1561908432167045,0.1976643594712234,0.0,0.0
2.5250501002004007,-0.0801076877861705,0.2873331215980678,0.029092661157361848,-0.15184204154718356,0.20809525009132057,0.0,0.0
2.5450901803607215,-0.0742881469154631,0.2909770435353701,0.02611755106319104,-0.1487555047085404,0.1310314437940981,0.0,0.0
2.565130260521042,-0.06842494791467223,0.29315995003954365,0.023230474828421516,-0.14435381173847608,-0.07933427150269531,0.0,0.0
2.5851703406813624,-0.06259935260551804,0.29127976545770945,0.02053625128570533,-0.13471117713580932,0.030756816866329043,0.0,0.0
2.6052104208416833,-0.05676763289747898,0.29158598540195285,0.01795351807035364,-0.12913666076758434,-0.10088300528224488,0.0,0.0
2.6252505010020037,-0.050980418514743706,0.2893607191367636,0.015542985473995973,-0.12052662981788337,0.2469738019057675,0.0,0.0
2.6452905811623246,-0.0451012802123026,0.29395691512205535,0.013086001760018943,-0.1228491856988515,0.21975191400900262,0.0,0.0
2.665330661322645,-0.039140136662333055,0.2980571774984774,0.010582992966712747,-0.12515043966530978,0.11967222522643135,0.0,0.0
2.685370741482966,-0.03313532426499658,0.3002406198668236,0.008076713451761789,-0.12531397574754796,-0.09645939684342246,0.0,0.0
2.7054108216432864,-0.027170465157899885,0.2982429553548348,0.005677785381579191,-0.11994640350912984,-0.18706989017985864,0.0,0.0
2.7254509018036073,-0.021280231257205018,0.2945116950347433,0.00342408774636746,-0.11268488176058655,-0.23942413228628648,0.0,0.0
2.7454909819639277,-0.015484407427554572,0.2897911914825223,0.001332036954877676,-0.1046025395744892,-0.20722279950203443,0.0,0.0
2.7655310621242486,-0.009769828851856918,0.2857289287848827,-0.0006303947007807696,-0.09812158278292228,-0.23309693179949215,0.0,0.0
2.785571142284569,-0.004146030196668044,0.2811899327594437,-0.0024604459610750155,-0.0915025630147123,-0.250158345781007,0.0,0.0
2.8056112224448895,0.0013808550438859542,0.2763442620276999,-0.004159676709910789,-0.08496153744178868,-0.2304415664906457,0.0,0.0
2.8256513026052104,0.006819007808031627,0.27190763820728364,-0.005750336580947914,-0.07953299355185624,0.08627398952559731,0.0,0.0
2.845691382765531,0.012292474359751816,0.2736733275860095,-0.007427723845710428,-0.0838693632381257,0.14904292277049117,0.0,0.0
2.8657314629258517,0.017826229064819687,0.27668773525339346,-0.009239131697631228,-0.09057039259604,-0.015106314648078822,0.0,0.0
2.885771543086172,0.02335673556008001,0.2765253247630162,-0.011099961875331858,-0.09304150888503147,-0.41749069556979324,0.0,0.0
2.905811623246493,0.028727507265644967,0.2685385852782478,-0.012786579947065934,-0.08433090358670377,-0.26555818984694174,0.0,0.0
2.9258517034068134,0.03399831537139909,0.2635404052877061,-0.014398494607686281,-0.08059573303101741,-0.35766232620569527,0.0,0.0
2.9458917835671343,0.03913368111333094,0.2567682870965921,-0.01589200100994025,-0.07467532011269841,-0.3150620230438945,0.0,0.0
2.9659318637274548,0.04415065636676904,0.25084876267190526,-0.017301437680353273,-0.07047183352065113,-0.38146930135098095,0.0,0.0
2.9859719438877756,0.049023732070505664,0.2436537851868311,-0.018596855971245017,-0.06477091454458725,-0.38911698667563555,0.0,0.0
3.006012024048096,0.05375029568337366,0.2363281806433997,-0.01978195628637329,-0.05925501575641364,-0.44210814204659543,0.0,0.0
3.0260521042084165,0.058310009354640244,0.22798568356332916,-0.02083322461875258,-0.05256341661896461,-0.032121861368886284,0.0,0.0
3.0460921843687374,0.06286315716913451,0.2276573907247133,-0.021997066444452457,-0.05819209128499372,-0.1214887818935453,0.0,0.0
3.066132264529058,0.06737520003449836,0.2256021432681921,-0.023228555803344014,-0.06157446794457794,-0.4263144156272531,0.0,0.0
3.0861723446893787,0.07172754425226344,0.2176172108882539,-0.02435719771931776,-0.056432095798687174,-0.3282933593276995,0.0,0.0
3.106212424849699,0.07595876249689298,0.21156091223147716,-0.0254474347331213,-0.054511850690177124,-0.37596603773865717,0.0,0.0
3.12625250501002,0.08005056514588399,0.20459013244955035,-0.02647826795569287,-0.05154166112857831,-0.4696777957771278,0.0,0.0
