time,x,x_dot,theta,theta_dot,u,x_ref,theta_ref
0.0,-0.7028647491948941,-0.0945707216209991,-0.17811164502311067,0.0980983042603093,-9.999999999999995,0.0,0.0
0.02004008016032064,-0.7085996552446437,-0.2867453024874819,-0.17152030875371832,0.32956681346961747,-8.955171752049983,0.0,0.0
0.04008016032064128,-0.7177739325357358,-0.4587138645546056,-0.16085176732756937,0.533427071307448,-8.111780540688223,0.0,0.0
0.06012024048096192,-0.730063369416348,-0.6144718440306077,-0.14651483374744467,0.7168466790062341,-7.460676955868548,0.0,0.0
0.08016032064128256,-0.745219754476785,-0.7578192530218516,-0.12878410248199929,0.8865365632722692,-6.312624609827242,0.0,0.0
0.1002004008016032,-0.7628020264011043,-0.8791135962159634,-0.10820161626008756,1.0291243110955857,-5.3933937483803165,0.0,0.0
0.12024048096192384,-0.782458630761235,-0.9828302180065368,-0.0851623479704226,1.1519634144832482,-4.217711616680399,0.0,0.0
0.1402805611222445,-0.8037381470751144,-1.06397581569397,-0.06019888634428032,1.248173081307114,-3.4484497036202186,0.0,0.0
0.16032064128256512,-0.8263476015782902,-1.1304727251587936,-0.033598909541302124,1.3299988401489096,-3.2545392913227444,0.0,0.0
0.18036072144288576,-0.8502184940168572,-1.193544621928352,-0.005306425986316133,1.4146241777492996,-1.981958093013435,0.0,0.0
0.2004008016032064,-0.8748614827793867,-1.2321494381264713,0.024112280221517724,1.470935310391693,-0.7986173318151266,0.0,0.0
0.22044088176352705,-0.8998219903234971,-1.2480253772055179,0.054148506673275025,1.501811322587865,1.0241626631676717,0.0,0.0
0.24048096192384769,-0.924396034596306,-1.228702213640447,0.08392428828948995,1.4887890808107458,3.7499786118106186,0.0,0.0
0.2605210420841683,-0.9475277983424181,-1.1565881873056028,0.11203819784921126,1.405695477986066,3.6558076736018186,0.0,0.0
0.280561122244489,-0.9692617839872458,-1.0866992822413897,0.1387268837596049,1.3344342955196817,4.393473771228599,0.0,0.0
0.3006012024048096,-0.9893181189341009,-1.0028167473427558,0.1637374188044627,1.2505267522428893,5.10374977795831,0.0,0.0
0.32064128256513025,-1.007427745154485,-0.9054813110192088,0.1868266273664387,1.1544604280988005,5.745103295921267,0.0,0.0
0.3406813627254509,-1.023348488103454,-0.7960371474484498,0.20778313947769922,1.0478256055630253,6.300392957007653,0.0,0.0
0.3607214428857715,-1.0368715541301257,-0.6761533013335851,0.2264349278503739,0.9325894186337341,6.7462830744797655,0.0,0.0
0.3807615230460922,-1.0478303941155889,-0.5479419992731636,0.24266016815693944,0.8112620153282781,7.110225633892575,0.0,0.0
0.4008016032064128,-1.056089806588886,-0.412970623664857,0.2563693505662926,0.6854591204676593,7.387464506024469,0.0,0.0
0.42084168336673344,-1.0615475924077826,-0.27288929094483316,0.267506042269839,0.5568345851773182,4.474039640393134,0.0,0.0
0.4408817635270541,-1.0653394743323463,-0.18959409622818835,0.27778753194465217,0.5140744837406602,4.9497768877234956,0.0,0.0
0.4609218436873747,-1.0672841585039694,-0.09723420858115049,0.28701756656220784,0.4615017308777839,5.463998159648324,0.0,0.0
0.48096192384769537,-1.0671852727600526,0.004944287195841085,0.29497302627279326,0.39777298552927165,5.921653602524245,0.0,0.0
0.501002004008016,-1.0648681447586765,0.11585640006880867,0.3014551508724963,0.32410622998515265,6.307369414630475,0.0,0.0
0.5210420841683366,-1.0601856234021794,0.23412606782486217,0.306296041835026,0.2420445481264848,6.617885396618851,0.0,0.0
0.5410821643286573,-1.0530192061679604,0.3583208617109488,0.30935860392930375,0.15312810471388805,6.838041398081328,0.0,0.0
0.561122244488978,-1.0432847956961933,0.4867205235883524,0.3105433602365803,0.05923781536382797,6.974542352253034,0.0,0.0
0.5811623246492986,-1.0309300074479282,0.6177394124132591,0.3097835605615479,-0.037989983751620604,7.035393108423989,0.0,0.0
0.6012024048096192,-1.0159310083309883,0.7499499558470009,0.30704001550858273,-0.13717725264825864,7.020515693775234,0.0,0.0
0.6212424849699398,-0.9982925216404167,0.881924334528577,0.3023008121270038,-0.23696016907894396,9.999999996318673,0.0,0.0
0.6412825651302605,-0.9768575212008023,1.071750021980724,0.29387795407174483,-0.4211429027629494,9.999999249880409,0.0,0.0
0.6613226452905812,-0.9516220447212541,1.2617738239774081,0.2817043651425773,-0.6086794464583773,9.811421926707013,0.0,0.0
0.6813627254509018,-0.9226535232995661,1.4484260710843995,0.2657888656916246,-0.7957749725476349,8.356538390445879,0.0,0.0
0.7014028056112224,-0.8905094853399345,1.6072018979815827,0.24682375965321277,-0.9482553019205905,7.120021530134807,0.0,0.0
0.721442885771543,-0.8556624515847195,1.742351687760748,0.2253652287241329,-1.0729265464539937,5.903886201819712,0.0,0.0
0.7414829659318637,-0.8185771539497351,1.8542648817492253,0.2019493839871651,-1.1707922368483892,4.844200424441034,0.0,0.0
0.7615230460921844,-0.7796578788483819,1.9459637550676616,0.1770188337679972,-1.2465275109583958,3.8033113755325663,0.0,0.0
0.781563126252505,-0.7393020578938694,2.0177910477256265,0.15100325937254977,-1.300778719772372,3.1791243465901635,0.0,0.0
0.8016032064128256,-0.6977453088204104,2.0778374536729456,0.12409188003918897,-1.3455689666680402,2.510528690626157,0.0,0.0
0.8216432865731462,-0.6552407805603165,2.125226413004694,0.0964979795032603,-1.3796950267964332,1.971936109867142,0.0,0.0
0.8416833667334669,-0.6119911672202251,2.162480667004575,0.06835851980635084,-1.4069729848454735,1.1596112091825066,0.0,0.0
0.8617234468937875,-0.5683060867918028,2.184254021421111,0.03996917635310517,-1.4194671726622834,0.4098809736039426,0.0,0.0
0.8817635270541082,-0.5244709511968126,2.1917567797495097,0.011589879822376383,-1.4189648265364394,-0.11757875958723762,0.0,0.0
0.9018036072144289,-0.48068456390993125,2.1893193643440685,-0.016648240424722464,-1.4119060123549423,-0.9048021392313239,0.0,0.0
0.9218436873747494,-0.43724712332201127,2.171872029396,-0.04446116603667871,-1.3906462805978126,-1.6650444285123966,0.0,0.0
0.9418837675350701,-0.39444828389413444,2.1399419713938417,-0.07157891655686519,-1.3558875260093237,-2.4334438514018677,0.0,0.0
0.9619238476953907,-0.3525808075584651,2.093373816783468,-0.09772433224679113,-1.3072707844962972,-2.881423451674879,0.0,0.0
0.9819639278557114,-0.31181239263790117,2.038420746028196,-0.12280339299147738,-1.2539530372343126,-3.449922072588892,0.0,0.0
1.002004008016032,-0.27235769675873184,1.9727347939584672,-0.1466477574211234,-1.1922182214823014,-4.001534801974299,0.0,0.0
1.0220440881763526,-0.2344247460171371,1.8966475370797378,-0.1690940799239284,-1.1223161251402487,-5.247346820276796,0.0,0.0
1.0420841683366733,-0.19849189073262025,1.7966427642258427,-0.1895738192954903,-1.0239869685780953,-5.6634779239782524,0.0,0.0
1.062124248496994,-0.1647142849055117,1.6888802913554275,-0.20798792298317406,-0.9207051843841878,-6.021221837154065,0.0,0.0
1.0821643286573146,-0.13322468597844578,1.5744799463532964,-0.22425949145684843,-0.8135784236837175,-6.310172558699164,0.0,0.0
1.1022044088176353,-0.10412954659779408,1.4547569690325848,-0.23833830100193565,-0.7039404772543616,-6.537899841288936,0.0,0.0
1.122244488977956,-0.07751209199227226,1.3308727302760914,-0.2501952310254861,-0.5928465011775225,-6.696146366428026,0.0,0.0
1.1422845691382766,-0.05342922511715209,1.204143343756008,-0.2598258933909514,-0.48153311827326595,-6.785168153088127,0.0,0.0
1.1623246492985972,-0.03191171998596184,1.0758752565595127,-0.26724969732720855,-0.37119019681285714,-6.808217276111902,0.0,0.0
1.1823647294589177,-0.012965548533839258,0.947308572606129,-0.2725075637694369,-0.26289332211141786,-6.770445174425053,0.0,0.0
1.2024048096192383,0.003426087797636885,0.8195818165738071,-0.27565892756312327,-0.15756818968431896,-6.67174406185131,0.0,0.0
1.222444889779559,0.01730279898160885,0.6938355591985982,-0.27678201836296557,-0.05615453999211521,-9.999999985309314,0.0,0.0
1.2424849699398797,0.027373360506123053,0.5035280762257102,-0.27402238378274546,0.1379817290110042,-9.587799437515752,0.0,0.0
1.2625250501002003,0.03379661354541131,0.32116265196441296,-0.2675893656679463,0.32165090573995947,-8.313561136220562,0.0,0.0
1.282565130260521,0.037064387165745394,0.16338868101670426,-0.25814817395968215,0.47205958541320586,-7.126253027807001,0.0,0.0
1.3026052104208417,0.03763381129661462,0.02847120654346108,-0.24629619024228375,0.5925991858699197,-6.1215612226958225,0.0,0.0
1.3226452905811623,0.03589060145817476,-0.0871604919219927,-0.2325147710719608,0.6890709585161464,-5.122156145511875,0.0,0.0
1.342685370741483,0.03221821903150922,-0.18361912133327712,-0.21727327764835125,0.7620746711804786,-4.181257148935126,0.0,0.0
1.3627254509018036,0.026977424713349213,-0.26203971590800035,-0.20100266103261838,0.8135308307866431,-3.3752623940641984,0.0,0.0
1.3827655310621243,0.020476684688282086,-0.32503700125335644,-0.18405455243586827,0.8474054298375059,-2.6335799196473415,0.0,0.0
1.4028056112224447,0.012999653468205988,-0.37385156100380484,-0.16674310963762268,0.8655721399122798,-2.020035584010319,0.0,0.0
1.4228456913827654,0.004780334419342098,-0.4109659524431945,-0.1493096665491601,0.8716721544231283,-1.2270599688621422,0.0,0.0
1.442885771543086,-0.0038771472995685653,-0.43287408594553317,-0.13210083399710373,0.8604416276028187,-0.36272217326217315,0.0,0.0
1.4629258517034067,-0.012640515028290977,-0.43816838643612055,-0.1155086665699927,0.8296083713555515,0.5735214149744294,0.0,0.0
1.4829659318637274,-0.021149059589092002,-0.4254272280400513,-0.09997320799326595,0.7767729288363374,0.7336947663324918,0.0,0.0
1.503006012024048,-0.029344235107694648,-0.4097587759301324,-0.08549166097200586,0.7240773510630046,0.9596242616512416,0.0,0.0
1.5230460921843687,-0.03714163991782516,-0.3898702405065255,-0.07210598483836325,0.6692838066821308,1.1962434960581998,0.0,0.0
1.5430861723446894,-0.04445245697783374,-0.365540853000429,-0.05987119030954885,0.6117397264407199,1.3448265799164303,0.0,0.0
1.56312625250501,-0.05122194594508582,-0.33847444836260404,-0.04879803932739292,0.5536575491077964,1.4124377753866018,0.0,0.0
1.5831663326653307,-0.05742668974101027,-0.3102371897962225,-0.03885710867418949,0.4970465326601714,1.4569849099992207,0.0,0.0
1.6032064128256511,-0.06305200456479651,-0.2812657411893117,-0.030012402579814156,0.4422353047187668,1.5180420766322609,0.0,0.0
1.6232464929859718,-0.06807649636449101,-0.251224589984725,-0.022244298720237827,0.3884051929788165,1.8592816601522189,0.0,0.0
1.6432865731462925,-0.07236916600002948,-0.2146334817769233,-0.01570367504912696,0.32703118355554345,1.769739021835477,0.0,0.0
1.6633266533066131,-0.07596678212157228,-0.1798808060771399,-0.010297128114899882,0.2703273467113539,1.66198435391352,0.0,0.0
1.6833667334669338,-0.07891291702690609,-0.14730674526669074,-0.00592764907352627,0.2184739520686806,1.5433954014060007,0.0,0.0
1.7034068136272544,-0.081255086841819,-0.11710849074564557,-0.002498368500074814,0.17146402867257282,1.4024515076188544,0.0,0.0
1.723446893787575,-0.08304926908086643,-0.08970911195237169,9.476547504334593e-05,0.129656698755908,1.3056627827002567,0.0,0.0
1.7434869739478958,-0.08433397479878553,-0.06423528589595462,0.001924718880748811,0.09149767028527325,1.1632257296367707,0.0,0.0
1.7635270541082164,-0.08516531101689234,-0.04156681090534056,0.003086354335131274,0.05808177271912316,1.0188035968066922,0.0,0.0
1.783567134268537,-0.08559996824438917,-0.021732861374841508,0.0036714821894747993,0.029256392717176262,0.8922652483190681,0.0,0.0
1.8036072144288577,-0.08568749296659299,-0.004376236110190959,0.003757814809122467,0.004316630982383385,0.8030158313109367,0.0,0.0
1.8236472945891782,-0.08546273741824699,0.011237777417299703,0.0033981050058526606,-0.017985490163490325,0.7315290639342125,0.0,0.0
1.8436873747494988,-0.08495349439366506,0.025462151229096404,0.0026319013296358224,-0.038310183810841905,0.6105679333899068,0.0,0.0
1.8637274549098195,-0.08420674628704083,0.03733740533121173,0.001525129681170707,-0.055338582423255775,0.4929943358739478,0.0,0.0
1.8837675350701402,-0.08326805603869582,0.04693451241725116,0.00013958714582341936,-0.06927712676736437,0.36621393023672166,0.0,0.0
1.9038076152304608,-0.08218649956632547,0.05407782361851737,-0.00145930061029633,-0.07994438780598746,0.2697424421493693,0.0,0.0
1.9238476953907815,-0.08099926447087102,0.05936175477272247,-0.003225182445499276,-0.0882940917601473,0.15464491199624975,0.0,0.0
1.9438877755511021,-0.07975075898641686,0.0624252742227085,-0.00510186417617851,-0.09383408653396173,0.03660218812274958,0.0,0.0
1.9639278557114228,-0.07848650892272108,0.06321250318478891,-0.007032127810884369,-0.09651318173529291,-0.06741447964073313,0.0,0.0
1.9839679358717435,-0.0772465513348786,0.06199787939212426,-0.008967299136201345,-0.09675856626584878,-0.07356894660154147,0.0,0.0
2.004008016032064,-0.07603273353008068,0.06069089023989598,-0.010915980931632987,-0.0974340897715821,-0.2837708726063297,0.0,0.0
2.024048096192385,-0.07492652292583667,0.055310530212200296,-0.012767506958406232,-0.09257630133866233,-1.2420171823070065,0.0,0.0
2.0440881763527052,-0.0743013169624187,0.031260298170898204,-0.013973059464075751,-0.06027762528347591,-1.375641679785489,0.0,0.0
2.064128256513026,-0.07420891095221481,0.004620300510194575,-0.014462096797137747,-0.024451866653099813,-1.011762314758555,0.0,0.0
2.0841683366733466,-0.07450717037195885,-0.014912970987202286,-0.014450544299181339,0.0005776248978204522,-0.6027584652296982,0.0,0.0
2.1042084168336674,-0.07503649684538072,-0.02646632367109341,-0.014177557048382673,0.013649362539933279,-0.27605047572380237,0.0,0.0
2.124248496993988,-0.07566948067054528,-0.031649191258228605,-0.013832505679104854,0.017252568463890953,-0.18010822535201593,0.0,0.0
2.1442885771543083,-0.07636878217046958,-0.034965074996215,-0.013469331180985044,0.01815872490599049,-0.30109508056755463,0.0,0.0
2.164328657314629,-0.07718171705713538,-0.04064674433328972,-0.013014976324609495,0.02271774281877749,-0.05755803312512714,0.0,0.0
2.1843687374749496,-0.07801338233515749,-0.04158326390110552,-0.012609023909487635,0.02029762075609295,-0.29581735301998524,0.0,0.0
2.2044088176352705,-0.0789568682272504,-0.04717429460464511,-0.012109551452687503,0.024973622840006565,0.051923623109136896,0.0,0.0
2.224448897795591,-0.07987662186356345,-0.04598768181565244,-0.011716810484623247,0.019637048403212797,-0.891345661420969,0.0,0.0
2.244488977955912,-0.08114084027871035,-0.06321092075734493,-0.010876580764712885,0.042011485995518114,-0.7783145459313267,0.0,0.0
2.2645290581162323,-0.08270565770833253,-0.07824087148110895,-0.00964967390062976,0.06134534320415627,-0.5255731953714309,0.0,0.0
2.284569138276553,-0.08447280104834577,-0.08835716700066189,-0.008176185616073717,0.0736744142278021,-0.04680693847740991,0.0,0.0
2.3046092184368736,-0.08625586697100783,-0.08915329613310312,-0.0067268745808555415,0.07246555176090876,-0.09046493450497572,0.0,0.0
2.3246492985971945,-0.08807230713507665,-0.09082200820344113,-0.0052670636028738695,0.07299054889908357,-0.022882159842523453,0.0,0.0
2.344689378757515,-0.08989616733940621,-0.09119301021647823,-0.003827080517241657,0.07199915428161062,-0.0472399455037602,0.0,0.0
2.3647294589178354,-0.09173736519822265,-0.09205989294082215,-0.0023835965069183658,0.07217420051616456,0.16491620556372996,0.0,0.0
2.3847695390781563,-0.09351352549949976,-0.08880801506385545,-0.0010516144012681003,0.06659910528251327,-0.005098516633584266,0.0,0.0
2.4048096192384767,-0.09529137403435903,-0.08889242674296302,0.0002767188423541628,0.06641666218111315,0.21057467419253803,0.0,0.0
2.4248496993987976,-0.09698713013661385,-0.08478780511274138,0.0014836164458317115,0.06034488017387743,-0.03418363651906228,0.0,0.0
2.444889779559118,-0.09869665073606695,-0.08547602997265538,0.002719866088860194,0.06181248215142413,0.21099556953776025,0.0,0.0
2.464929859719439,-0.1003246148158769,-0.0813982039904971,0.0038498406197492374,0.05649872654445218,0.04351675478941408,0.0,0.0
2.4849699398797593,-0.10193670079691801,-0.08060429905205539,0.004978635922928175,0.05643976515894689,0.2719327443461537,0.0,0.0
2.50501002004008,-0.10344409845045609,-0.07536988267690371,0.005979754737112398,0.05005594070921115,0.10626090587598783,0.0,0.0
2.5250501002004007,-0.10491174411829737,-0.07338228339206418,0.006956422668932597,0.048833396591009944,0.2858625538016707,0.0,0.0
2.5450901803607215,-0.10626983273368358,-0.06790443076931042,0.007809739528115991,0.04266584295916967,0.16423876824987832,0.0,0.0
2.565130260521042,-0.10756606956818208,-0.06481184172492542,0.008616231612408591,0.04032460421462998,0.22424134995341494,0.0,0.0
2.5851703406813624,-0.10877727137932154,-0.06056009055697266,0.009345886734461864,0.03648275610266363,0.18836184213641274,0.0,0.0
2.6052104208416833,-0.10991764842015289,-0.057018852041567585,0.010024294384369784,0.03392038249539598,0.2599777599499991,0.0,0.0
2.6252505010020037,-0.11095944900253893,-0.05209002911930157,0.010613842176984294,0.02947738963072552,-0.06048206431690745,0.0,0.0
2.6452905811623246,-0.11202789295518016,-0.05342219763206153,0.011305697052204522,0.03459274376101145,0.08365455153255522,0.0,0.0
2.665330661322645,-0.11306693308704223,-0.05195200659310318,0.012019911122996399,0.03571070353959388,0.14811992317846912,0.0,0.0
2.685370741482966,-0.11405161825840503,-0.04923425856813998,0.012723280796081706,0.03516848365426534,0.16670330813627462,0.0,0.0
2.7054108216432864,-0.11497489844273225,-0.04616400921636122,0.013409372115372117,0.03430456596452058,0.2006655412647816,0.0,0.0
2.7254509018036073,-0.11582371753463121,-0.04244095459494775,0.014062647092917067,0.03266374887724751,0.20857916005882743,0.0,0.0
2.7454909819639277,-0.11659517477067144,-0.038572861802011436,0.014682597228259901,0.03099750676714168,0.23768692204963332,0.0,0.0
2.7655310621242486,-0.11727808946508916,-0.03414573472088645,0.015256107461548575,0.028675511664433738,0.23252876378930254,0.0,0.0
2.785571142284569,-0.11787463888587271,-0.029827471039177447,0.015789812170697762,0.026685235457459273,0.279675287625358,0.0,0.0
2.8056112224448895,-0.11836657859879074,-0.024596985645901105,0.016259502125347873,0.023484497732505598,0.29293599632183703,0.0,0.0
2.8256513026052104,-0.11874886874797408,-0.01911450745916724,0.01666038414001295,0.02004410073325374,0.17279228684689274,0.0,0.0
2.845691382765531,-0.11906850658248888,-0.015981891725740313,0.017065256757871506,0.020243630892927852,0.20490294862047023,0.0,0.0
2.8657314629258517,-0.11931307799155767,-0.01222857045343928,0.017457892620344834,0.019631793123666436,0.2323425914055392,0.0,0.0
2.885771543086172,-0.11947198810383038,-0.007945505613635117,0.017824719442857555,0.01834134112563616,0.2609755389974213,0.0,0.0
2.905811623246493,-0.11953416902989882,-0.003109046303422262,0.01815130448660516,0.01632925218738026,0.2870056248832371,0.0,0.0
2.9258517034068134,-0.11948955705055585,0.0022305989671485725,0.018424483748683215,0.013658963103902709,0.31333111475122827,0.0,0.0
2.9458917835671343,-0.11932795788270566,0.008079958392509395,0.018630583771405886,0.010305001136133553,0.3195376336993436,0.0,0.0
2.9659318637274548,-0.11904700876994517,0.014047455638024245,0.0187672748214944,0.006834552504425738,0.3275659994467027,0.0,0.0
2.9859719438877756,-0.11864361613375707,0.02016963180940533,0.01883072380444657,0.003172449147608355,0.3317319410181345,0.0,0.0
3.006012024048096,-0.11811617256554909,0.02637217841039889,0.018818894540616197,-0.0005914631915186251,0.3322185704450856,0.0,0.0
3.0260521042084165,-0.1174644847860663,0.032584388974139,0.01873142780179351,-0.004373336941134341,0.22358665982304865,0.0,0.0
3.0460921843687374,-0.11673091762163075,0.036678358221777466,0.018631305795800367,-0.00500610029965708,0.25461739310017845,0.0,0.0
3.066132264529058,-0.11590333367609755,0.04137919727665967,0.018499748481376012,-0.006577865721217787,0.2480637519071472,0.0,0.0
3.0861723446893787,-0.11498425256476844,0.045954055566455904,0.01833975898967614,-0.007999474584993532,0.258108775752719,0.0,0.0
3.106212424849699,-0.11396970868050807,0.050727194213018544,0.018144453229830597,-0.009765287992277156,0.263234433781067,0.0,0.0
