time,x,x_dot,theta,theta_dot,u,x_ref,theta_ref
0.0,0.26766735551746024,-0.01385117090196289,-0.1623704698153902,-0.030384089912800907,-7.450899743530692,0.0,0.0
0.02004008016032064,0.2645339797839179,-0.15666878667711606,-0.1597025741592691,0.13339478280605427,-7.431295285770532,0.0,0.0
0.04008016032064128,0.25855093547188973,-0.29915221560140914,-0.15375168664428546,0.2975443757491826,-6.244509894540934,0.0,0.0
0.06012024048096192,0.25017833379154064,-0.418630084017455,-0.1451608979148256,0.429539436472994,-5.080921141187312,0.0,0.0
0.08016032064128256,0.23986649697622114,-0.5155918407659755,-0.1345436680736617,0.5308614920581941,-3.9139345373123238,0.0,0.0
0.1002004008016032,0.228066662512938,-0.5899917231641567,-0.12250423410915333,0.6019716982254181,-3.1116565503979725,0.0,0.0
0.12024048096192384,0.21508776595273824,-0.6489448280099877,-0.10942863346873793,0.6537800320207696,-2.1131665563242255,0.0,0.0
0.1402805611222445,0.20131515464311495,-0.6886305654811652,-0.09581207699286122,0.6808278237938358,-1.1708742233098335,0.0,0.0
0.16032064128256512,0.18711235589311248,-0.7101399375001238,-0.0821157622147891,0.6848157389036059,-0.6290596647389319,0.0,0.0
0.18036072144288576,0.17268687242772507,-0.7212741732693705,-0.06856875082077997,0.6773505697004562,0.6858140889026403,0.0,0.0
0.2004008016032064,0.15854789261072635,-0.7069489908499355,-0.055852833965026855,0.6357958427876558,0.3541367554719719,0.0,0.0
0.22044088176352705,0.14456260708828858,-0.6992642761218882,-0.043694994194840506,0.6078919885093174,1.1499004532633441,0.0,0.0
0.24048096192384769,0.1310381721242347,-0.6762217482026944,-0.03248402348137862,0.5605485356730944,0.9725313104061604,0.0,0.0
0.2605210420841683,0.11790231971595139,-0.6567926204141653,-0.022046108409038964,0.5218957536169826,1.1251100793073239,0.0,0.0
0.280561122244489,0.10521169880019517,-0.6345310457878107,-0.012405000897054456,0.4820553755992254,1.3031647954655694,0.0,0.0
0.3006012024048096,0.09303310012222764,-0.6089299338983766,-0.0036042819401591267,0.44003594784476646,1.4030124975937874,0.0,0.0
0.32064128256513025,0.08140301246803877,-0.5815043827094436,0.004353009835346486,0.39786458877528064,1.4742223553014258,0.0,0.0
0.3406813627254509,0.07034696973791825,-0.5528021365060262,0.011475359838393692,0.3561175001523603,1.5846582937825455,0.0,0.0
0.3607214428857715,0.05990603548023386,-0.5220467128842193,0.01774311563836321,0.31338778999847583,1.5892619688749763,0.0,0.0
0.3807615230460922,0.050080207745229845,-0.4912913867502009,0.02319319198108905,0.2725038171362919,1.5650718624725075,0.0,0.0
0.4008016032064128,0.040858476049520205,-0.4610865847854819,0.027874212374827772,0.2340510196869362,1.5195147311335855,0.0,0.0
0.42084168336673344,0.03222170953294744,-0.43183832582863846,0.03184245048802863,0.19841190566004313,0.4593339943933965,0.0,0.0
0.4408817635270541,0.02375507790294195,-0.42333158150027445,0.03574286000327129,0.1950204757621327,0.5269368080617398,0.0,0.0
0.4609218436873747,0.015483842521285452,-0.41356176908282494,0.03956053732491832,0.1908838660823518,0.6186893803660755,0.0,0.0
0.48096192384769537,0.007442709975538029,-0.40205662728737107,0.04326595589745491,0.18527092862682945,0.7296717394448068,0.0,0.0
0.501002004008016,-0.00032608007717085767,-0.38843950263544436,0.04681766355385237,0.17758538281987296,0.8131366819035714,0.0,0.0
0.5210420841683366,-0.007790982946586337,-0.373245143470774,0.05018933973578845,0.168583809096804,0.8841037339777091,0.0,0.0
0.5410821643286573,-0.014925280492176993,-0.3567148772795328,0.053360846931456825,0.15857535978341875,0.9567888370614979,0.0,0.0
0.561122244488978,-0.0217015285769899,-0.33881240424064546,0.056309796381604854,0.14744747250740156,1.031879505778752,0.0,0.0
0.5811623246492986,-0.028091282396412315,-0.31948769097112056,0.05901100480368501,0.13506042110400804,1.0998927715414548,0.0,0.0
0.6012024048096192,-0.03406878874070364,-0.2988753172145661,0.0614418707006129,0.12154329484639426,1.164986743679598,0.0,0.0
0.6212424849699398,-0.039609356875964334,-0.2770284067630347,0.0635798000276176,0.10689646635023456,1.420034064402893,0.0,0.0
0.6412825651302605,-0.044614109952992594,-0.2502376538514129,0.06528949574752983,0.08548478599561168,1.46196056790844,0.0,0.0
0.6613226452905812,-0.049067191562474174,-0.22265408047407892,0.06655735305233909,0.06339286524046306,1.465938533298528,0.0,0.0
0.6813627254509018,-0.05296742085244499,-0.19501146449854073,0.06738910892149656,0.041587793457873466,1.466299285586201,0.0,0.0
0.7014028056112224,-0.05631490072313853,-0.16737399353467697,0.06778984010279401,0.020036559064872516,1.4542103099597359,0.0,0.0
0.721442885771543,-0.05911446472732913,-0.13997820020953036,0.06776914763091796,-0.0010346235938028456,1.4412659338467095,0.0,0.0
0.7414829659318637,-0.061371156947010445,-0.11283461098406576,0.0673344530785448,-0.02173472761865824,1.4165447806758762,0.0,0.0
0.7615230460921844,-0.0630944946630372,-0.08616688580133776,0.06649741865949275,-0.04185172095260187,1.3843400041392813,0.0,0.0
0.781563126252505,-0.06429679725516439,-0.060115129606359986,0.06527151865640399,-0.06129500015443842,1.34057456236756,0.0,0.0
0.8016032064128256,-0.06499478095044636,-0.034899184764098395,0.0636745071884099,-0.07985057339970429,1.2960573651734726,0.0,0.0
0.8216432865731462,-0.06520534784578484,-0.010528344766923638,0.06172222736738248,-0.09761399105137092,1.6901897811781206,0.0,0.0
0.8416833667334669,-0.06477417267828608,0.021558758374937807,0.059172237344946005,-0.12749950112182404,1.5335578973197712,0.0,0.0
0.8617234468937875,-0.06376161455046424,0.05062790639109255,0.05609975546640264,-0.15362409392716814,1.3753778758586717,0.0,0.0
0.8817635270541082,-0.06222848852377733,0.07665630133434537,0.05257762475384005,-0.17610653562812947,1.2297839518433336,0.0,0.0
0.9018036072144289,-0.06023057373962715,0.09989573920750934,0.04866853019857552,-0.1954547277632267,1.0707608307181304,0.0,0.0
0.9218436873747494,-0.05782878198395396,0.12008958778365926,0.04444059479397924,-0.2113967702298139,0.9443988013296034,0.0,0.0
0.9418837675350701,-0.055071195362695495,0.13787933106292344,0.03994088856580679,-0.2249853114086225,0.8322445231440851,0.0,0.0
0.9619238476953907,-0.0520002786926725,0.15354583350114973,0.03520649876487924,-0.2367194900463775,0.6221610177596304,0.0,0.0
0.9819639278557114,-0.04869664432267114,0.1651817185000682,0.03033030880628873,-0.24380949792952541,0.42719130208748424,0.0,0.0
1.002004008016032,-0.045234972684237776,0.17308358192166803,0.025395523469324006,-0.24673926684823613,0.22859655806163312,0.0,0.0
1.0220440881763526,-0.0416913465785222,0.17718130528577866,0.020487139197655144,-0.24541921358344318,-0.12104503752839266,0.0,0.0
1.0420841683366733,-0.03820080042797765,0.1745273075272273,0.01577868914300473,-0.23542250273252055,-0.2052563985109635,0.0,0.0
1.062124248496994,-0.03479485407819018,0.17029731748937374,0.01128976063433338,-0.2244464254335675,-0.296753196471503,0.0,0.0
1.0821643286573146,-0.031507932143886024,0.16434609671520772,0.007045586781665613,-0.21220869263338837,-0.38004115864055776,0.0,0.0
1.1022044088176353,-0.028371324899552637,0.15683036221666938,0.0030681403706041424,-0.1988723205530735,-0.4593124279135997,0.0,0.0
1.122244488977956,-0.025414830283378466,0.1478247308087085,-0.0006212777504395429,-0.18447090605218427,-0.5233210171714867,0.0,0.0
1.1422845691382766,-0.022662371495567706,0.13762293939053802,-0.004008484183247072,-0.16936032164037645,-0.5667210856486904,0.0,0.0
1.1623246492985972,-0.02012991506579872,0.1266228214884493,-0.007089450953894256,-0.1540483385323592,-0.6171874802888095,0.0,0.0
1.1823647294589177,-0.017836271653543394,0.11468217061276631,-0.00985409052726273,-0.13823197866842363,-0.65770657526472,0.0,0.0
1.2024048096192383,-0.015796459999299007,0.10199058271221936,-0.012296143680445156,-0.12210265765912132,-0.684289334119545,0.0,0.0
1.222444889779559,-0.014020152370309683,0.08881538144946616,-0.014415471881781118,-0.10596641006679812,-1.1249116925756888,0.0,0.0
1.2424849699398797,-0.012678679723726305,0.06707363232916894,-0.015967729837160147,-0.07761289776895136,-1.0589691083036672,0.0,0.0
1.2625250501002003,-0.011745862522283778,0.046640860072126304,-0.01700129321459853,-0.051678168871919186,-1.0221054791833493,0.0,0.0
1.282565130260521,-0.01120701782194699,0.026942235016839396,-0.017544252660642953,-0.027147972302221088,-0.9868732601778524,0.0,0.0
1.3026052104208417,-0.011048240692130182,0.007938856490840366,-0.01762064500551595,-0.0038196172436498373,-0.9313201756375872,0.0,0.0
1.3226452905811623,-0.01124783115846925,-0.00997952331695335,-0.01726344443211662,0.017860028669966565,-0.8482914439673545,0.0,0.0
1.342685370741483,-0.011773492702716768,-0.026283077212375962,-0.016518956189478823,0.03722441213188979,-0.7632639211363345,0.0,0.0
1.3627254509018036,-0.012592260241477223,-0.04093837693802275,-0.01543220989614543,0.0543373146666697,-0.686727389420764,0.0,0.0
1.3827655310621243,-0.013674580268662315,-0.0541160013592546,-0.01404110995715956,0.06955499694929344,-0.6052449494967411,0.0,0.0
1.4028056112224447,-0.014989056458533262,-0.06572380949354734,-0.012384535036812996,0.08282874601732823,-0.48524176262729507,0.0,0.0
1.4228456913827654,-0.016489336704283878,-0.07501401228753075,-0.010522223195981385,0.0931155920415806,-0.9221212714980782,0.0,0.0
1.442885771543086,-0.0183464357633283,-0.09285495295222115,-0.008186877941006993,0.11676726274871957,-0.692123822283556,0.0,0.0
1.4629258517034067,-0.02047127388842191,-0.1062419062546805,-0.005498296622869539,0.13442906590687273,-0.5258851052878039,0.0,0.0
1.4829659318637274,-0.02279975159525194,-0.1164238853415016,-0.0025367609670352764,0.1480767827917131,-0.3520117380754483,0.0,0.0
1.503006012024048,-0.02526486735299447,-0.12325578788712639,0.0006146962662285805,0.15757286166319284,-0.1588905034543617,0.0,0.0
1.5230460921843687,-0.027792162222272526,-0.12636474346390275,0.0038629760488993023,0.16241398913353608,0.08088977305726622,0.0,0.0
1.5430861723446894,-0.030288997099438348,-0.1248417438582912,0.007088294777641198,0.1612659364370948,0.5146681870931602,0.0,0.0
1.56312625250501,-0.03258702386691695,-0.11490133837393016,0.0100572478862805,0.1484476554319651,0.5399635564247618,0.0,0.0
1.5831663326653307,-0.03467722257694635,-0.10450993550147022,0.012773768065923593,0.13582600898215463,0.5853640867078073,0.0,0.0
1.6032064128256511,-0.03654265608124746,-0.09327167521505544,0.015228439311889665,0.12273356229830365,0.6038705554495849,0.0,0.0
1.6232464929859718,-0.0381768073587241,-0.08170756387383209,0.017425927944934864,0.10987443165225995,1.477184621018572,0.0,0.0
1.6432865731462925,-0.03923952517738708,-0.05313589093314908,0.01886932710538857,0.07216995802268536,1.308139853340738,0.0,0.0
1.6633266533066131,-0.039797191318659,-0.027883307063595875,0.01966663248209006,0.03986526883507437,1.1645263660273513,0.0,0.0
1.6833667334669338,-0.039906076727376685,-0.005444270435884347,0.01990687744656086,0.012012248223540037,0.9568307393982833,0.0,0.0
1.7034068136272544,-0.03964729697590089,0.012938987573789706,0.019713049945767343,-0.00969137503967599,0.7117040222090367,0.0,0.0
1.723446893787575,-0.03911644848213531,0.02654242468827934,0.019227286310837064,-0.024288181746513923,0.3929953545795583,0.0,0.0
1.7434869739478958,-0.038437756624904874,0.03393459286152162,0.01863291597832168,-0.029718516625769135,0.3491043080145327,0.0,0.0
1.7635270541082164,-0.03762817781488282,0.0404789405011028,0.017951858682894273,-0.03405286477137033,0.2835182600969291,0.0,0.0
1.783567134268537,-0.03671310943016085,0.04575341923609829,0.017218176671734354,-0.03668410055799603,0.2368826094338011,0.0,0.0
1.8036072144288577,-0.03571053911214578,0.050128515900753734,0.016454517828058495,-0.03818294218379299,0.19640064906325458,0.0,0.0
1.8236472945891782,-0.034636044719416885,0.053724719636444526,0.01567974262376255,-0.0387387602147974,0.22495105284665556,0.0,0.0
1.8436873747494988,-0.03347826325789416,0.05788907307613627,0.014872265720727935,-0.04037384515173072,0.18763641407072695,0.0,0.0
1.8637274549098195,-0.03225152413176239,0.06133695630658852,0.014048819439446516,-0.04117231406407091,0.15668059692151798,0.0,0.0
1.8837675350701402,-0.03096767089373441,0.06419266190139895,0.013222316695881892,-0.04132513717823119,0.12988410154135835,0.0,0.0
1.9038076152304608,-0.02963692321599772,0.06653738388683443,0.012403218770329067,-0.040954896277641206,0.10421503902920096,0.0,0.0
1.9238476953907815,-0.02826906298187596,0.06839301170608794,0.011601374565047722,-0.040092210264067306,0.0721379705425647,0.0,0.0
1.9438877755511021,-0.02687637759660199,0.06963426926369858,0.010830490341200445,-0.03854421119236388,0.059309962180524374,0.0,0.0
1.9639278557114228,-0.025463651952571626,0.07063628220151826,0.010093208528939124,-0.03686409061306601,0.05014830532000098,0.0,0.0
1.9839679358717435,-0.02403424987979893,0.07147010363863489,0.009390238961053123,-0.03514847839430006,0.04260900555395035,0.0,0.0
2.004008016032064,-0.02259091195765351,0.07216689610727088,0.008721558903424418,-0.033434002881435276,0.03630301070599473,0.0,0.0
2.024048096192385,-0.021135907323871037,0.07275023168912365,0.008086640459116359,-0.03174592221540298,0.14418973908323257,0.0,0.0
2.0440881763527052,-0.019626954023533254,0.07544766501688911,0.007418371432665962,-0.03341345132251985,0.12294709040457927,0.0,0.0
2.064128256513026,-0.018072149888262504,0.07774020676353754,0.006724963382093552,-0.03467040252862051,0.09199164496882743,0.0,0.0
2.0841683366733466,-0.016483375735001807,0.07943870766303485,0.006020151071051368,-0.03524061555210918,0.04979107130788381,0.0,0.0
2.1042084168336674,-0.01487689726523315,0.08032392348843287,0.005324175517983052,-0.03479877765341581,0.024383744013144082,0.0,0.0
2.124248496993988,-0.013262429590602831,0.08072338373151593,0.004647510262678148,-0.03383326276524521,0.018652601340364124,0.0,0.0
2.1442885771543083,-0.011642015219560356,0.08102071855212374,0.003989240823672349,-0.03291347195028996,0.0038127697171690955,0.0,0.0
2.164328657314629,-0.010021256374403285,0.08103794225785353,0.0033538970229102247,-0.03176719003810621,-0.00826563445166885,0.0,0.0
2.1843687374749496,-0.00840468426960651,0.08082860523983881,0.0027445379344446215,-0.030467954423280152,-0.01893117915412903,0.0,0.0
2.2044088176352705,-0.006796286232401217,0.08041990186026468,0.0021635600257454207,-0.029048895434960035,-0.02774986445111792,0.0,0.0
2.224448897795591,-0.005199337030589786,0.07984746009057152,0.0016124583803048941,-0.02755508227202632,0.08842919762449136,0.0,0.0
2.244488977955912,-0.0035683426227387316,0.0815497203925527,0.0010197962186838595,-0.029633108081051733,0.06385049262974038,0.0,0.0
2.2645290581162323,-0.0019127243837546222,0.08278091194920546,0.00039621405529714337,-0.03117910816933581,0.005465455015411222,0.0,0.0
2.284569138276553,-0.00025508694385953596,0.08288187199475432,-0.0002280667339929186,-0.031214039464503098,-0.0038575375976083112,0.0,0.0
2.3046092184368736,0.0014011105523418653,0.08280987481007006,-0.0008515291516651403,-0.031173120883611082,-0.027721694343484503,0.0,0.0
2.3246492985971945,0.003046734384833388,0.08228119162457614,-0.0014641448495293565,-0.030630784893210812,-0.04943874698595653,0.0,0.0
2.344689378757515,0.004673485583147417,0.08133755991570149,-0.002057073099764621,-0.02964641251176322,-0.06704178142422357,0.0,0.0
2.3647294589178354,0.006274664934971756,0.08005896759121696,-0.002623755646282652,-0.02833412732590156,-0.08067674377979611,0.0,0.0
2.3847695390781563,0.007845114154697977,0.07852246098631102,-0.0031597899739512383,-0.02680171638342931,-0.09184513012145214,0.0,0.0
2.4048096192384767,0.00938062869838851,0.07677572718452665,-0.0036620232089765842,-0.0251116617512673,-0.10077731426075959,0.0,0.0
2.4248496993987976,0.010877866961485485,0.07486191315484876,-0.004128397468288313,-0.02331871296558645,0.022934159121650408,0.0,0.0
2.444889779559118,0.012385238012956422,0.07536855257354685,-0.004634221032978243,-0.025291178234496503,-0.012811377789436938,0.0,0.0
2.464929859719439,0.013888937999027656,0.07518499930356173,-0.005161773600211743,-0.026377628361674982,-0.043303930038728226,0.0,0.0
2.4849699398797593,0.01537721915180138,0.07441405763868614,-0.005696544807951648,-0.02673856038699523,-0.07086164600233953,0.0,0.0
2.50501002004008,0.016839481030623712,0.07311309394111659,-0.006225786696155448,-0.026462094410189995,-0.09746660310105004,0.0,0.0
2.5250501002004007,0.018265493412627773,0.07130061910020312,-0.0067372738788896765,-0.025574359136711435,-0.11661307294856384,0.0,0.0
2.5450901803607215,0.019647931485973876,0.0691219036673051,-0.007223032033394596,-0.024287907725245982,-0.13212865080394598,0.0,0.0
2.565130260521042,0.020980879937430728,0.06664742257284265,-0.0076770485890957476,-0.02270082778505756,-0.14422757989656254,0.0,0.0
2.5851703406813624,0.022259747623181482,0.06394338428753771,-0.008095109461341437,-0.020903043612284435,-0.15433795129566133,0.0,0.0
2.6052104208416833,0.023480709082143246,0.061048072948088235,-0.008473937083915042,-0.018941381128680254,-0.1619407683995538,0.0,0.0
2.6252505010020037,0.024640906119279545,0.058009851856815016,-0.00881147330709866,-0.016876811159180872,-0.0730040955027551,0.0,0.0
2.6452905811623246,0.025775140717360638,0.056711729904054556,-0.009161870138232893,-0.017519841556711668,-0.09680903100336766,0.0,0.0
2.665330661322645,0.026874224052938395,0.05495416677888789,-0.009513412615262876,-0.01757712385149919,-0.1206082442879375,0.0,0.0
2.685370741482966,0.02792896987529275,0.05273729111771775,-0.0098543964535501,-0.017049191914361172,-0.13966750025173524,0.0,0.0
2.7054108216432864,0.028932038561152035,0.05015343429296419,-0.010175823487147097,-0.016071351679849914,-0.15452793412856786,0.0,0.0
2.7254509018036073,0.029877723368379967,0.04728424036139665,-0.010471028357576937,-0.014760243521491953,-0.16640624420400704,0.0,0.0
2.7454909819639277,0.030761473738173888,0.04418751848969606,-0.010734924754228284,-0.013194819832567374,-0.17543542365278492,0.0,0.0
2.7655310621242486,0.03157984193724454,0.04091840995353263,-0.010963895519398569,-0.011448538258514246,-0.1835391058339462,0.0,0.0
2.785571142284569,0.03232973137300042,0.03749447178779393,-0.011154644615881584,-0.009537454824150757,-0.18788718447600852,0.0,0.0
2.8056112224448895,0.0330095000184911,0.03398843227453381,-0.01130583174694903,-0.007559356553372254,-0.19032590369612348,0.0,0.0
2.8256513026052104,0.03361823957989199,0.030436978070044328,-0.011416983957386998,-0.005557610521898476,-0.1322017471308785,0.0,0.0
2.845691382765531,0.03417866327274719,0.02802118464276014,-0.011522800830198358,-0.005290843640567951,-0.14182599904781207,0.0,0.0
2.8657314629258517,0.03468704583145478,0.0254191279353795,-0.011618320189546807,-0.004775967967422432,-0.15352554740647764,0.0,0.0
2.885771543086172,0.03513884921363931,0.02259016910922636,-0.011697301034426118,-0.0039490422439655525,-0.16788037033595518,0.0,0.0
2.905811623246493,0.03552849449091806,0.019482263863937574,-0.011751844935235803,-0.0027271950404841924,-0.170532092685244,0.0,0.0
2.9258517034068134,0.03585496254006579,0.01632340245738641,-0.011780744822832435,-0.001444994379831602,-0.17441418364441635,0.0,0.0
2.9458917835671343,0.03611674676913163,0.013089211453292022,-0.011781912223204443,-5.837001860039626e-05,-0.17677019575959418,0.0,0.0
2.9659318637274548,0.03631292814523651,0.009809068805243962,-0.011753976404592283,0.0013967909306080177,-0.17729859753787464,0.0,0.0
2.9859719438877756,0.036443292465573845,0.006518216016866598,-0.011696452104680781,0.002876214995575114,-0.17678331081676693,0.0,0.0
3.006012024048096,0.03650802431461635,0.0032365924521249073,-0.011609277933388541,0.004358708564611987,-0.17473521104770223,0.0,0.0
3.0260521042084165,0.036507897913930956,-6.320034269587365e-06,-0.011493102090352115,0.005808792151821299,-0.1473625746301184,0.0,0.0
3.0460921843687374,0.0364535613695507,-0.0027168272190128823,-0.011363202931830605,0.006494957926075474,-0.15016285574938892,0.0,0.0
