time,x,x_dot,theta,theta_dot,u,x_ref,theta_ref
0.0,-0.324547648678712,0.08302706075790048,0.00724660810895697,0.06742564077425856,-0.8620205630168005,0.0,0.0
0.02004008016032064,-0.32322556548927156,0.06610415947202311,0.009145060603358209,0.09492262472006197,-0.8165542903990526,0.0,0.0
0.04008016032064128,-0.32222474066423207,0.05004124125197326,0.011578818135037652,0.12168787658397213,-0.5485309541072634,0.0,0.0
0.06012024048096192,-0.3214412800616143,0.03917303013088766,0.01440643591091401,0.1413808887938179,-0.2549685127617282,0.0,0.0
0.08016032064128256,-0.32076143647482147,0.03399217933964132,0.017474020015922027,0.1533792052504008,0.08257435789205747,0.0,0.0
0.1002004008016032,-0.3200543704898544,0.03535329924835304,0.020603480094063206,0.15647300390705884,0.3951826391479032,0.0,0.0
0.12024048096192384,-0.319198992747489,0.04276888711827134,0.023631722906173575,0.15141214060551852,0.4289731979168399,0.0,0.0
0.1402805611222445,-0.3181829856741411,0.05080035366739303,0.026558094264592165,0.14631856792092957,0.5248333863232179,0.0,0.0
0.16032064128256512,-0.31696978296131334,0.06066013564138905,0.029345006873014525,0.13934563042111803,0.7134099481312802,0.0,0.0
0.18036072144288576,-0.3154866015057312,0.07415907277910552,0.0318997946748052,0.1277393900895339,0.9006219677550127,0.0,0.0
0.2004008016032064,-0.31366112664762924,0.09127374290509796,0.03412914596840751,0.11146756468011543,0.9692273652132737,0.0,0.0
0.22044088176352705,-0.3114672321821387,0.10969472327452738,0.036007049747420375,0.09389518895064337,1.016707636508297,0.0,0.0
0.24048096192384769,-0.30888693435191994,0.12901489151093787,0.037517629453210986,0.07552898528953064,1.054947545625315,0.0,0.0
0.2605210420841683,-0.30590574940855536,0.14905924716822866,0.03864809113389103,0.05652308403400237,1.0812518993627882,0.0,0.0
0.280561122244489,-0.3025137411727347,0.169600411791031,0.039390214964066084,0.03710619150875259,1.0737736964194915,0.0,0.0
0.3006012024048096,-0.2987140426402696,0.18998492662325828,0.03975306933075284,0.018142718334337497,1.0529112068419995,0.0,0.0
0.32064128256513025,-0.2945148992859478,0.2099571677160891,0.03975114431030524,-9.625102237989167e-05,1.0192521647800825,0.0,0.0
0.3406813627254509,-0.2899294439295165,0.2292727678215665,0.03940409992695866,-0.017352219167329208,1.008905715020783,0.0,0.0
0.3607214428857715,-0.2849616134077614,0.2483915260877546,0.03871578746494093,-0.034415623100886646,0.9699834618212021,0.0,0.0
0.3807615230460922,-0.27962639569753645,0.2667608855112479,0.03770460093939681,-0.05055932627720599,0.9466516568449816,0.0,0.0
0.4008016032064128,-0.2739326025047928,0.2846896596371823,0.03637778126566168,-0.06634098368675657,0.8989717136616663,0.0,0.0
0.42084168336673344,-0.2678984549336072,0.30170737855927987,0.0347548070672592,-0.08114870992012395,0.7059893986735947,0.0,0.0
0.4408817635270541,-0.26159878486721183,0.31498350331976915,0.03293822777523678,-0.09082896460112108,0.6895660333622232,0.0,0.0
0.4609218436873747,-0.25503947793597376,0.3279653465619029,0.030926168367538736,-0.10060297038490204,0.6652286718525,0.0,0.0
0.48096192384769537,-0.24822945179172232,0.34050130721257177,0.028720148081981832,-0.11030101427784528,0.632022083159802,0.0,0.0
0.501002004008016,-0.24118102944446687,0.35242111736277176,0.02632565001642087,-0.11972490327804809,0.5917480470326955,0.0,0.0
0.5210420841683366,-0.23390923795845978,0.3635895743003547,0.023751103811785884,-0.12872731023174938,0.5427223856922052,0.0,0.0
0.5410821643286573,-0.2264324682105027,0.37383848739785386,0.021008925064360553,-0.1371089373712665,0.488784353734914,0.0,0.0
0.561122244488978,-0.21877098048527174,0.3830743862615477,0.018113349761258567,-0.1447787651550993,0.43114832050192076,0.0,0.0
0.5811623246492986,-0.210946434771115,0.3912272857078379,0.015079814495018091,-0.1516767633120238,0.36669600914835865,0.0,0.0
0.6012024048096192,-0.2029831120316326,0.3981661369741199,0.011926877933345957,-0.15764682808360672,0.30392703834497975,0.0,0.0
0.6212424849699398,-0.19490460281430638,0.4039254608663117,0.008671366432681267,-0.16277557503323445,0.45644486450613864,0.0,0.0
0.6412825651302605,-0.18665045880514602,0.41270720045801834,0.005203532346290796,-0.17339170431952358,0.34168804016061904,0.0,0.0
0.6613226452905812,-0.17826446792232709,0.4192995441409475,0.001568631675629626,-0.1817450335330585,0.20919461760515712,0.0,0.0
0.6813627254509018,-0.1697972924772678,0.42335877225296487,-0.002178751836323798,-0.1873691755976712,0.10193038764052867,0.0,0.0
0.7014028056112224,-0.16128971813534154,0.4253787170963125,-0.005999498748285743,-0.19103734559809724,0.012721994340834902,0.0,0.0
0.721442885771543,-0.15277546399207936,0.4257127071631088,-0.00986551373039712,-0.19330074910556885,-0.10082141912622464,0.0,0.0
0.7414829659318637,-0.14429773228922269,0.4238865851428336,-0.01373475398183616,-0.19346201257195192,-0.20127794804491267,0.0,0.0
0.7615230460921844,-0.13589461709527775,0.42015575969724717,-0.017572857301546646,-0.19190516598552432,-0.28922986943872564,0.0,0.0
0.781563126252505,-0.12759934113320764,0.4147637981035054,-0.02135258631569434,-0.18898645070738457,-0.38498137227582696,0.0,0.0
0.8016032064128256,-0.11944818643151954,0.4075577350844049,-0.025041782969457783,-0.1844598326881722,-0.46007056551745146,0.0,0.0
0.8216432865731462,-0.11146939707717786,0.39893946771708405,-0.028619812438948716,-0.17890147347454657,-0.7101205905021638,0.0,0.0
0.8416833667334669,-0.10375951803825602,0.3854939519460918,-0.031963049890717916,-0.1671618725884602,-0.7420127710794137,0.0,0.0
0.8617234468937875,-0.09633003265509096,0.371474269158253,-0.03507396761915979,-0.15554588642209352,-0.7854353449492266,0.0,0.0
0.8817635270541082,-0.08919698926288094,0.35665216961050084,-0.03794683726939283,-0.14364348251165196,-0.8267140509912185,0.0,0.0
0.9018036072144289,-0.08237566718164174,0.34106610406195975,-0.04057568793269914,-0.1314425331653153,-0.867968352506277,0.0,0.0
0.9218436873747494,-0.07588140556724206,0.324713080719984,-0.042953028468347774,-0.11886702678243186,-0.9056217586730165,0.0,0.0
0.9418837675350701,-0.06972821023465861,0.3076597666291725,-0.04507188915229788,-0.1059430341975054,-0.9401075194025855,0.0,0.0
0.9619238476953907,-0.0639289249119868,0.28996426613359055,-0.04692552270276805,-0.09268167752350846,-0.9688444548462696,0.0,0.0
0.9819639278557114,-0.05849422629776767,0.2717349307109566,-0.04850886794752339,-0.07916726223776693,-0.9947444002661471,0.0,0.0
1.002004008016032,-0.053433761832779175,0.2530232232494247,-0.049816814716554754,-0.0653973384515682,-1.0173276649862286,0.0,0.0
1.0220440881763526,-0.04875596418371374,0.2338898824532719,-0.050844450288453774,-0.051381778594950946,-1.1100225110238462,0.0,0.0
1.0420841683366733,-0.04449670102738772,0.21296315781630085,-0.051544136970100976,-0.03498433408235993,-1.0691566125963605,0.0,0.0
1.062124248496994,-0.04063982547701783,0.19284377751849408,-0.051944176481445364,-0.020001975567219485,-1.077910423143606,0.0,0.0
1.0821643286573146,-0.037188636753722984,0.17255943616474245,-0.05204198985002387,-0.004890668428925153,-1.077309799304331,0.0,0.0
1.1022044088176353,-0.03414287196275386,0.15228823954845608,-0.051838547736161054,0.010172105693140521,-1.0693859577674036,0.0,0.0
1.122244488977956,-0.031499498315383206,0.13216868236853288,-0.05133719007492279,0.02506788306191348,-1.0582594566725287,0.0,0.0
1.1422845691382766,-0.02925431975606954,0.11225892796568326,-0.05054124091449351,0.03979745802146391,-1.0347838099885631,0.0,0.0
1.1623246492985972,-0.027398407396378617,0.09279561798454614,-0.04945937274782897,0.05409340833322729,-1.0056832248203103,0.0,0.0
1.1823647294589177,-0.025920720292531577,0.07388435519235195,-0.04810173538810649,0.06788186798612365,-0.960240667505372,0.0,0.0
1.2024048096192383,-0.024803920961363416,0.05583996655840809,-0.04648628278945077,0.08077262993278597,-0.9083466653092129,0.0,0.0
1.222444889779559,-0.02402822873086873,0.03878461152473432,-0.044633111763939505,0.09265855127556351,-1.3368259333712786,0.0,0.0
1.2424849699398797,-0.02376135771514333,0.013343550786269857,-0.04228013695995294,0.11764874019932817,-1.170498597068141,0.0,0.0
1.2625250501002003,-0.02393909448325995,-0.00888683840583095,-0.039509640574540886,0.13852481927060262,-0.9472066040919231,0.0,0.0
1.282565130260521,-0.024475116730493286,-0.026801112361666754,-0.03643458198292244,0.1537529295809222,-0.730874875782423,0.0,0.0
1.3026052104208417,-0.02528590128972591,-0.040539227961631265,-0.033161964869366116,0.16363085567781602,-0.5050133189026518,0.0,0.0
1.3226452905811623,-0.026284258974804856,-0.0499178842539473,-0.02980315324832505,0.1679405810520532,-0.2042306773293286,0.0,0.0
1.342685370741483,-0.027353786942044753,-0.05347639836199484,-0.026512807420686076,0.1645172913819487,0.0414086081011619,0.0,0.0
1.3627254509018036,-0.028399575419335677,-0.05228942386454622,-0.02341381576135514,0.15494958296654673,0.15820579738662816,0.0,0.0
1.3827655310621243,-0.02937693276663112,-0.04886786736477222,-0.020554953239906623,0.14294312607242585,0.198305683932752,0.0,0.0
1.4028056112224447,-0.030271026681744372,-0.04470469575566259,-0.017941660616322137,0.13066463117922433,0.2543016539622063,0.0,0.0
1.4228456913827654,-0.03106075225476147,-0.039486278650854925,-0.015590222954377338,0.11757188309723993,0.5288962786220816,0.0,0.0
1.442885771543086,-0.03163962865346356,-0.02894381993510435,-0.013646432636645757,0.09718951588657902,0.48846783181882014,0.0,0.0
1.4629258517034067,-0.03202398624737519,-0.019217879695581586,-0.012074399543483987,0.07860165465808852,0.4245733050996168,0.0,0.0
1.4829659318637274,-0.032239206894952716,-0.010761032378876476,-0.010826846320324907,0.062377661157953956,0.32727496699582354,0.0,0.0
1.503006012024048,-0.03232361512981481,-0.004220411743104846,-0.009838998512658336,0.049392390383328544,0.2519397644277877,0.0,0.0
1.5230460921843687,-0.032306891046116046,0.0008362041849381517,-0.009060563335180596,0.03892175887388705,0.19150747018449368,0.0,0.0
1.5430861723446894,-0.0322128395366699,0.004702575472307236,-0.00845128419622932,0.030463956947563736,0.14567897962816154,0.0,0.0
1.56312625250501,-0.03205951841889655,0.007666055888667473,-0.007980512687077869,0.02353857545757263,0.10269833309267823,0.0,0.0
1.5831663326653307,-0.03186383460479001,0.009784190705327116,-0.00762013911670955,0.01801867851841596,0.06662579461491985,0.0,0.0
1.6032064128256511,-0.03163996770741032,0.011193344868984458,-0.007346790537649191,0.013667428953017919,0.03652391930265392,0.0,0.0
1.6232464929859718,-0.031399742529645044,0.012011258888263933,-0.007141135148466703,0.0102827694591244,-0.14696007637467476,0.0,0.0
1.6432865731462925,-0.031214817969093426,0.009246228027580917,-0.00689454604988726,0.012329454928972168,-0.09456940198232908,0.0,0.0
1.6633266533066131,-0.03106482058401843,0.007499869253749674,-0.006636114444444136,0.012921580272156164,-0.0798218878317529,0.0,0.0
1.6833667334669338,-0.030944069607635783,0.006037548819132419,-0.006372837286931812,0.013163857875616225,-0.06994148798934272,0.0,0.0
1.7034068136272544,-0.030848784927435233,0.0047642340100275075,-0.006108833944311165,0.01320016713103235,-0.05860118727440989,0.0,0.0
1.723446893787575,-0.03077461694692024,0.0037083990257496136,-0.005849073211735249,0.012988036628795814,-0.06796882423325279,0.0,0.0
1.7434869739478958,-0.030725295607890887,0.002466066951467778,-0.005586437305826962,0.013131795295414327,-0.03818865361092348,0.0,0.0
1.7635270541082164,-0.030689275219060917,0.0018010194414984787,-0.005336690310876572,0.012487349747519541,-0.05247611731342937,0.0,0.0
1.783567134268537,-0.030672202692005962,0.0008536263527477748,-0.005089899670348884,0.012339532026384391,-0.047080222058952285,0.0,0.0
1.8036072144288577,-0.030672043149528604,7.97712386786339e-06,-0.004847665514610289,0.012111707786929759,-0.03717038964001837,0.0,0.0
1.8236472945891782,-0.030684998954792153,-0.0006477902631774128,-0.004614257213842126,0.011670415038408153,-0.19181249993830193,0.0,0.0
1.8436873747494988,-0.030771482297341914,-0.004324167127488036,-0.00429774245894139,0.01582573774503678,-0.15077139282362023,0.0,0.0
1.8637274549098195,-0.03091556863397908,-0.0072043168318582426,-0.003920132843031871,0.018880480795476003,-0.1130532037889184,0.0,0.0
1.8837675350701402,-0.03110264761309523,-0.009353948955807602,-0.0035011109636625955,0.020951093968463765,-0.057815581474028585,0.0,0.0
1.9038076152304608,-0.03131128421011145,-0.010431829850810969,-0.00307034668503776,0.021538213931241786,-0.027433583144476265,0.0,0.0
1.9238476953907815,-0.03152974605795567,-0.01092309239221113,-0.002642896138698052,0.021372527316985395,-0.029907499598528217,0.0,0.0
1.9438877755511021,-0.03175912106142526,-0.01146875017347933,-0.0022146166453869904,0.02141397466555308,-0.01329265418461192,0.0,0.0
1.9639278557114228,-0.031993048434228864,-0.01169636864018016,-0.0017925266815948253,0.021104498189608255,-0.007896742086629872,0.0,0.0
1.9839679358717435,-0.03222954353322947,-0.011824754950030112,-0.001377121008256808,0.020770283666900865,0.012996864362657345,0.0,0.0
2.004008016032064,-0.03246057219595311,-0.01155143313618191,-0.0009780022711930244,0.019955936853189183,0.029942561725628685,0.0,0.0
2.024048096192385,-0.03267963616751856,-0.010953198578272644,-0.0006025664129220834,0.018771792913547053,-0.033749428006018434,0.0,0.0
2.0440881763527052,-0.03291169733167168,-0.01160305820765597,-0.0002111878238093192,0.019568929455638207,-0.004371214819317938,0.0,0.0
2.064128256513026,-0.033145403725123236,-0.011685319672577974,0.0001814160589927478,0.01963019414010335,0.015844352819421904,0.0,0.0
2.0841683366733466,-0.033372979238282606,-0.011378775657968545,0.0005658954257514188,0.019223968337933547,0.043980954135657294,0.0,0.0
2.1042084168336674,-0.03358355443950476,-0.010528760061107617,0.0009282156430815811,0.018116010866508117,0.06837012216184359,0.0,0.0
2.124248496993988,-0.033767715893320845,-0.009208072690804212,0.0012563945019175295,0.01640894294179742,0.08667272032616587,0.0,0.0
2.1442885771543083,-0.03391841551833998,-0.007534981250956786,0.0015417949913818984,0.014270024473218445,0.08609225850405904,0.0,0.0
2.164328657314629,-0.03403596163429372,-0.005877305797686896,0.001786556426722259,0.012238071767018023,0.08422164964063984,0.0,0.0
2.1843687374749496,-0.03412115436151376,-0.004259636361001799,0.0019933165534295814,0.01033800633536613,0.08146426834674281,0.0,0.0
2.2044088176352705,-0.0341751289693243,-0.0026987303905272675,0.002164992215415061,0.008583783099273982,0.07826085798357987,0.0,0.0
2.224448897795591,-0.03419918472235667,-0.0012027876516183392,0.0023045399246621047,0.006977385462352192,-0.009047739830291043,0.0,0.0
2.244488977955912,-0.034227431699608235,-0.0014123488625782472,0.0024639127456113556,0.007968641047462546,-0.00751619954310373,0.0,0.0
2.2645290581162323,-0.034259317934913026,-0.0015943117652394642,0.002643219770478194,0.008965351243341902,0.011589439803457946,0.0,0.0
2.284569138276553,-0.03428743930755998,-0.001406068632347546,0.0028324154548264226,0.009459784217411449,0.03748452034999514,0.0,0.0
2.3046092184368736,-0.03430174511714324,-0.0007152904791630061,0.003017544999649162,0.009256477241136974,0.056939499449686314,0.0,0.0
2.3246492985971945,-0.03429469659375351,0.00035242616948648114,0.0031883952530730743,0.008542512671195619,0.07518330187884925,0.0,0.0
2.344689378757515,-0.034259223508584596,0.0017736542584457931,0.0033353715341044956,0.007348814051571057,0.07761424532153326,0.0,0.0
2.3647294589178354,-0.034194419375836456,0.0032402066374071893,0.0034579786674661787,0.006130356668084154,0.07862093579963031,0.0,0.0
2.3847695390781563,-0.03409992650465158,0.004724643559243836,0.003556400949002325,0.004921114076807318,0.07857482266365867,0.0,0.0
2.4048096192384767,-0.033975791102663425,0.00620677009940765,0.003631286019777233,0.0037442535387453837,0.07750904810436071,0.0,0.0
2.4248496993987976,-0.03382245052859805,0.007667028703268747,0.0036837295620920224,0.002622177115739481,0.015696226343994014,0.0,0.0
2.444889779559118,-0.0336640407660632,0.00792048812674273,0.0037502208742746946,0.00332456560913361,0.018269719421801632,0.0,0.0
2.464929859719439,-0.0334995766302006,0.008223206793129925,0.003829673836348687,0.003972648103699608,0.03453092255612684,0.0,0.0
2.4849699398797593,-0.033322735355834306,0.008842063718314917,0.003913077184935043,0.004170167429317807,0.04732390024104473,0.0,0.0
2.50501002004008,-0.03312854870135445,0.00970933272399277,0.0039934733771482414,0.00401980961065992,0.06838691998573114,0.0,0.0
2.5250501002004007,-0.03290882038162512,0.010986415986466555,0.004059048201386591,0.0032787412119175147,0.07193065712615875,0.0,0.0
2.5450901803607215,-0.032662186336635854,0.01233170224946315,0.004108142208602072,0.002454700360773998,0.07388896519537286,0.0,0.0
2.565130260521042,-0.032387896457302216,0.013714493966681816,0.004139919445579917,0.0015888618488922824,0.07475412227640707,0.0,0.0
2.5851703406813624,-0.032085622246221565,0.015113710554032666,0.004154074215500169,0.000707738496012566,0.07455320147525164,0.0,0.0
2.6052104208416833,-0.03175544616536898,0.01650880404262922,0.004150813312807143,-0.00016304513465129089,0.07367829247064683,0.0,0.0
2.6252505010020037,-0.03139770869193617,0.017886873671640657,0.004130627967360869,-0.0010092672723136902,0.0519502088042976,0.0,0.0
2.6452905811623246,-0.031020882893918307,0.018841289900893225,0.004106101116123335,-0.0012263425618766804,0.05578796955251902,0.0,0.0
2.665330661322645,-0.030623464148498855,0.01987093727097251,0.004074833124113193,-0.0015633996005071167,0.058102850462506975,0.0,0.0
2.685370741482966,-0.03020454016718744,0.0209461990655707,0.004035272681318875,-0.0019780221397159045,0.05960243868328348,0.0,0.0
2.7054108216432864,-0.02976351443254706,0.022051286732019032,0.0039862931043810786,-0.0024489788468898136,0.06024474565848261,0.0,0.0
2.7254509018036073,-0.029300122260258694,0.023169608614418195,0.00392720979374185,-0.0029541655319614184,0.059936024055541305,0.0,0.0
2.7454909819639277,-0.028814467185522545,0.024282753736807532,0.003857830756009582,-0.0034689518866134104,0.058433476245684374,0.0,0.0
2.7655310621242486,-0.028307115653932083,0.025367576579523154,0.0037785974226873967,-0.0039616666661092545,0.057688525388473806,0.0,0.0
2.785571142284569,-0.0277783356526964,0.026439000061783995,0.0036894459131951362,-0.0044575754746130165,0.05503051675764411,0.0,0.0
2.8056112224448895,-0.027229138850338862,0.027459840117876912,0.00359136888165968,-0.004903851576772819,0.05262699234665648,0.0,0.0
2.8256513026052104,-0.026660435050798525,0.028435189977016793,0.0034851538329398707,-0.005310752435990457,0.053228483749211235,0.0,0.0
2.845691382765531,-0.0260719590909793,0.02942379799096123,0.0033697791117683618,-0.005768736058575445,0.049477912478187495,0.0,0.0
2.8657314629258517,-0.025465141469071,0.03034088109541491,0.003246711125638827,-0.006153399306476746,0.046489641789398226,0.0,0.0
2.885771543086172,-0.024841113008952427,0.031201423005928673,0.0031169218469471534,-0.0064894639345836665,0.04326590790326796,0.0,0.0
2.905811623246493,-0.024201094491895076,0.03200092585286755,0.002981478603869103,-0.006772162153902525,0.04027439397026407,0.0,0.0
2.9258517034068134,-0.02354621446048752,0.03274400157037787,0.0028412772303953787,-0.007010068673686215,0.03768279707635145,0.0,0.0
2.9458917835671343,-0.02287744403565715,0.03343852124151832,0.002696949617424688,-0.007216380648534533,0.03437620340629482,0.0,0.0
2.9659318637274548,-0.022196032165956635,0.03407059348502576,0.0025495198894580477,-0.00737148639833201,0.03139892672803431,0.0,0.0
2.9859719438877756,-0.02150309840291235,0.03464668815221415,0.002399799969724704,-0.007485995986667192,0.0284254673973453,0.0,0.0
3.006012024048096,-0.02079976015210653,0.035166912540291015,0.0022485851079055838,-0.00756074309095602,0.027193469075938347,0.0,0.0
3.0260521042084165,-0.0200864548275116,0.03566526622974647,0.002095642422381473,-0.007647134276205533,0.04721853432502793,0.0,0.0
