time,x,x_dot,theta,theta_dot,u,x_ref,theta_ref
0.0,-0.9535514630027344,-0.04030177131717534,0.12569029623771216,-0.08161681157298062,-0.858409298111572,0.0,0.0
0.02004008016032064,-0.9547276796874175,-0.05881083423415148,0.1253451615873691,-0.017256732517152346,-0.859008736935622,0.0,0.0
0.04008016032064128,-0.9562742334288702,-0.07732768707263672,0.1262854720451971,0.04701552289140014,-0.2690144168245666,0.0,0.0
0.06012024048096192,-0.9579614095174306,-0.08435880442802221,0.12817502941814088,0.09447786864718918,1.283922938341969,0.0,0.0
0.08016032064128256,-0.9591844363159815,-0.061151339927547003,0.1301256431614966,0.0975306871677859,0.7068613356645242,0.0,0.0
0.1002004008016032,-0.9601687763800743,-0.04921700320463526,0.13248398020687704,0.1179168522690212,1.5863822254031812,0.0,0.0
0.12024048096192384,-0.9605723060024577,-0.020176481119174482,0.13475551940288888,0.11357695980059104,1.2808878848375223,0.0,0.0
0.1402805611222445,-0.9605147345384353,0.0028785732011230407,0.1371315785542283,0.11880295756697203,1.6514743099687443,0.0,0.0
0.16032064128256512,-0.9598523196527096,0.03312074428628811,0.13941275796862043,0.11405897071960686,1.8668108151209075,0.0,0.0
0.18036072144288576,-0.9585018079268889,0.06752558629103311,0.14148902847424322,0.10381352528113896,2.062680254561156,0.0,0.0
0.2004008016032064,-0.9563874824892725,0.10571627188081642,0.1432604004527721,0.08856859892644448,2.1292332528092786,0.0,0.0
0.22044088176352705,-0.9534839333861191,0.14517745515767091,0.14469976462735032,0.07196820872890998,2.244271886701504,0.0,0.0
0.24048096192384769,-0.9497467635006797,0.1868584942719767,0.14574987745346119,0.05250564130554343,2.2462027025553732,0.0,0.0
0.2605210420841683,-0.9451755335409862,0.22856149798467484,0.14641638314117372,0.033325284385627485,2.4070997399077934,0.0,0.0
0.280561122244489,-0.9397077538552395,0.2733889842873316,0.14661060426175276,0.009711056028952437,2.4350266205489004,0.0,0.0
0.3006012024048096,-0.9333326034011226,0.3187575227058474,0.14631766060191426,-0.014647182991926022,2.4983438535598967,0.0,0.0
0.32064128256513025,-0.9260253262766434,0.365363856223959,0.1454990768888801,-0.04092918565170725,2.515112960736127,0.0,0.0
0.3406813627254509,-0.917779144261178,0.41230910077326494,0.1441398740521581,-0.06796014183609975,2.5108912211317826,0.0,0.0
0.3607214428857715,-0.9085952946943401,0.45919247834189897,0.14223370811687816,-0.09530829676399731,2.471016423989239,0.0,0.0
0.3807615230460922,-0.8984887425495276,0.505327607240622,0.13979131702492953,-0.1221195545974309,2.449079476362667,0.0,0.0
0.4008016032064128,-0.8874673033986102,0.5510719575458668,0.13680961789107712,-0.1490849566926209,2.409701621031342,0.0,0.0
0.42084168336673344,-0.8755454286007356,0.596093739893732,0.13329215390627008,-0.17587319924035189,1.3205825203194772,0.0,0.0
0.4408817635270541,-0.8631465194775726,0.6199454561581473,0.129846879553245,-0.17226371765125345,1.4317868662284463,0.0,0.0
0.4609218436873747,-0.85022625595621,0.6460131760681254,0.12638752175553497,-0.17296788988550169,1.5299978888859054,0.0,0.0
0.48096192384769537,-0.8367453679217183,0.6740444017245898,0.12283517454651452,-0.17761736045102236,1.612528429687466,0.0,0.0
0.501002004008016,-0.822670661713522,0.7037353104098141,0.11911936952118037,-0.18579025126670748,1.6821467649316557,0.0,0.0
0.5210420841683366,-0.8079739222441948,0.7348369734663598,0.11517603534344265,-0.19716670888688564,1.7358028398924585,0.0,0.0
0.5410821643286573,-0.7926330846315686,0.7670418806313118,0.1109488712538617,-0.2113582044790473,1.7685083204209235,0.0,0.0
0.561122244488978,-0.7766341640934553,0.7999460269056627,0.10639190001393808,-0.22784856199618048,1.786768175457226,0.0,0.0
0.5811623246492986,-0.7599687083225684,0.8332727885443482,0.1014654148882274,-0.24632425628553445,1.7921587082527988,0.0,0.0
0.6012024048096192,-0.7426331728394298,0.8667767741569301,0.0961348257392755,-0.26652945744759493,1.7767408110954228,0.0,0.0
0.6212424849699398,-0.724632008505152,0.9000582167138883,0.09037507422475974,-0.28798757572578765,2.2105776634523715,0.0,0.0
0.6412825651302605,-0.7057943353436632,0.9418836580744381,0.08389681163059044,-0.32391312970846486,2.0572651179437003,0.0,0.0
0.6613226452905812,-0.6861780272138748,0.9808154064894213,0.07674785851806358,-0.35744765562634323,1.912557348022333,0.0,0.0
0.6813627254509018,-0.6658374220495442,1.017030258216529,0.06896688752074236,-0.3890485498660612,1.7474413493156098,0.0,0.0
0.7014028056112224,-0.6448346519787312,1.0501385035406459,0.060600600106383185,-0.4183143707179586,1.5724959661919378,0.0,0.0
0.721442885771543,-0.623235534035428,1.0799558971651622,0.05169788165373445,-0.4451359226324367,1.3937108737170993,0.0,0.0
0.7414829659318637,-0.601107249458751,1.1064142288338457,0.042306627220231346,-0.469562721675155,1.18075296888017,0.0,0.0
0.7615230460921844,-0.5785301932230401,1.1288528117855479,0.0324917711516535,-0.4907428034288926,0.9752982926586871,0.0,0.0
0.781563126252505,-0.5555817329730134,1.1474230125013385,0.022311349586942697,-0.5090210782355401,0.7818157318245731,0.0,0.0
0.8016032064128256,-0.5323344790707395,1.162362695113694,0.011814226882695964,-0.5248561352123366,0.5198177891079238,0.0,0.0
0.8216432865731462,-0.5088877033341389,1.1723387868300275,0.001087451883817786,-0.5363387499439088,0.22508413895905816,0.0,0.0
0.8416833667334669,-0.4853533995068923,1.1767151913623297,-0.009764142945189175,-0.542579741450348,-0.017070471299442364,0.0,0.0
0.8617234468937875,-0.46182301449256313,1.1765192507164588,-0.020667239894444314,-0.545154847462757,-0.27940737360737167,0.0,0.0
0.8817635270541082,-0.4383958558195738,1.171357933649466,-0.03153706591313715,-0.5434913009346419,-0.5048922896957172,0.0,0.0
0.9018036072144289,-0.4151568536300529,1.1619501094760458,-0.04231026515024477,-0.5386599618553807,-0.7063219533189089,0.0,0.0
0.9218436873747494,-0.39218156841910706,1.1487642605472907,-0.052937044588933356,-0.5313389719344294,-0.895073551186016,0.0,0.0
0.9418837675350701,-0.3695406418713859,1.132046327386058,-0.06337423156402809,-0.5218593487547369,-1.1759961627555937,0.0,0.0
0.9619238476953907,-0.3473407100671774,1.109996590210424,-0.07352382519108776,-0.5074796813529835,-1.365888002661573,0.0,0.0
0.9819639278557114,-0.32565295161301006,1.0843879227083677,-0.08333937384264736,-0.49077743257798,-1.5595292656048168,0.0,0.0
1.002004008016032,-0.3045500792871666,1.0551436162921717,-0.09277034708410335,-0.47154866207279933,-1.7703255872012094,0.0,0.0
1.0220440881763526,-0.2841115800547138,1.0219249616226391,-0.10175403306234715,-0.4491842989121898,-2.595734711453427,0.0,0.0
1.0420841683366733,-0.2646566963724869,0.9727441841113459,-0.10986775280683583,-0.40568598722443383,-2.7230214325391042,0.0,0.0
1.062124248496994,-0.2462326132073428,0.9212041582572043,-0.11708987516559184,-0.36110611793780034,-2.826277626931461,0.0,0.0
1.0821643286573146,-0.2288773914517821,0.8677610877780348,-0.12340716532109262,-0.3158645077750392,-2.901686766877166,0.0,0.0
1.1022044088176353,-0.2126184934453308,0.8129449003225647,-0.12881683715020706,-0.27048359145572115,-2.958281030454074,0.0,0.0
1.122244488977956,-0.19747631312174987,0.7571090161790461,-0.13332122690529777,-0.2252194877545355,-2.9961989960022057,0.0,0.0
1.1422845691382766,-0.18346423561705266,0.7006038752348605,-0.1369276751921839,-0.18032241434430646,-3.0114928980265723,0.0,0.0
1.1623246492985972,-0.17058710167814728,0.6438566969452695,-0.1396508158811213,-0.13615703444687022,-3.020535005507755,0.0,0.0
1.1823647294589177,-0.15884758713191402,0.5869757273116631,-0.1415031647398077,-0.09261744293432045,-3.009038457442316,0.0,0.0
1.2024048096192383,-0.1482406334791975,0.530347682635826,-0.14250344922709646,-0.05001422436443748,-2.9850159699580123,0.0,0.0
1.222444889779559,-0.1387565656717201,0.4742033903738706,-0.14267208501957315,-0.008431789623834972,-4.447269646680891,0.0,0.0
1.2424849699398797,-0.13096509396969105,0.38957358510145207,-0.14116473904816326,0.0753672985704946,-3.996480602395705,0.0,0.0
1.2625250501002003,-0.12469104470995311,0.31370246298689713,-0.13823208601658712,0.14663265157880673,-3.4932229860197634,0.0,0.0
1.282565130260521,-0.11973924457664821,0.2475900066652449,-0.13414591795964773,0.20430840284696977,-3.260685585463283,0.0,0.0
1.3026052104208417,-0.11602035373502152,0.18594454208133432,-0.1290140687795276,0.25659245900600736,-2.3240291870932723,0.0,0.0
1.3226452905811623,-0.11317090139486151,0.1424726170080006,-0.12334573574653322,0.28341665164971863,-2.824089450695811,0.0,0.0
1.342685370741483,-0.11138749729827137,0.08917020482950672,-0.11681445381012488,0.32656409682041676,-2.164809451320408,0.0,0.0
1.3627254509018036,-0.1104151156606979,0.048619081878673705,-0.10976056348618433,0.35269451619702724,-1.5889208183746248,0.0,0.0
1.3827655310621243,-0.11003131243182361,0.019190161443714278,-0.10247336116646175,0.3643601159861296,-1.2452308745898792,0.0,0.0
1.4028056112224447,-0.11010417883502721,-0.0036433201601802565,-0.09510628710318852,0.3683537031636609,-0.20830668885358894,0.0,0.0
1.4228456913827654,-0.1102314505744989,-0.006363586973584202,-0.0882160581083655,0.34451144974115105,0.8075139843360863,0.0,0.0
1.442885771543086,-0.11001885122161136,0.01062996764437755,-0.08235105050827439,0.2932503800045551,-0.018580254221455927,0.0,0.0
1.4629258517034067,-0.10979015007176259,0.011435057492438346,-0.07699347365995352,0.2678788424160436,0.4685092798325686,0.0,0.0
1.4829659318637274,-0.10935683853205964,0.021665576985147345,-0.0723937039882965,0.22998848358285084,-0.13072865489094,0.0,0.0
1.503006012024048,-0.10895392545061457,0.02014565407225407,-0.06817352208054178,0.21100909538773585,0.40024403987990187,0.0,0.0
1.5230460921843687,-0.1083754648919348,0.028923027933988887,-0.06461618531135144,0.1778668384595174,-0.2566048041891217,0.0,0.0
1.5430861723446894,-0.10787868329396376,0.024839079898551962,-0.061316103831986386,0.1650040739682524,0.7830013512017612,0.0,0.0
1.56312625250501,-0.10705894393768553,0.04098696781391162,-0.05885933436129208,0.12283847353471525,-0.33014625629191563,0.0,0.0
1.5831663326653307,-0.10635119291448121,0.03538755116021618,-0.056580655067099035,0.11393396470965227,0.9021757001243284,0.0,0.0
1.6032064128256511,-0.10527530630431271,0.05379433050842464,-0.05518526019983299,0.0697697433633023,-0.6562565795320466,0.0,0.0
1.6232464929859718,-0.10443967386804752,0.04178162181325949,-0.053754379520356194,0.07154403397383996,-0.668554056202167,0.0,0.0
1.6432865731462925,-0.10384950387433049,0.029508499685851487,-0.05227179287413766,0.07412933231092657,-0.9681198177168588,0.0,0.0
1.6633266533066131,-0.10362209690765391,0.011370348333829335,-0.05055317062777311,0.08593111231822764,-1.3632263817088823,0.0,0.0
1.6833667334669338,-0.10391210135041173,-0.014500222137891677,-0.048356847399095675,0.10981616143387188,-1.487542830717036,0.0,0.0
1.7034068136272544,-0.10476865909477838,-0.042827887218332084,-0.045596267759619835,0.13802898197379188,-0.918846534018967,0.0,0.0
1.723446893787575,-0.10597068769925194,-0.06010143022367839,-0.04258618951827264,0.15050391206736005,-0.5902979826082752,0.0,0.0
1.7434869739478958,-0.10739086384366936,-0.07100880722087094,-0.03949956559709913,0.1543311960586755,0.25413397444443564,0.0,0.0
1.7635270541082164,-0.10870059096760457,-0.06548635619676013,-0.03681043460229003,0.13445654974045473,0.28010028347430593,0.0,0.0
1.783567134268537,-0.10989049880292301,-0.05949539176592194,-0.03451705991728679,0.11466873425016211,-0.0661224329809253,0.0,0.0
1.8036072144288577,-0.1110963307919628,-0.06029159945198946,-0.032402621407168646,0.1057219255059073,0.42624511301655665,0.0,0.0
1.8236472945891782,-0.11212657007681265,-0.051511964242492714,-0.03074164435755437,0.0830488524807137,-0.5758416745286751,0.0,0.0
1.8436873747494988,-0.11337270087369443,-0.062306539844088925,-0.028937804736806537,0.09019198103739164,-0.20154162928766683,0.0,0.0
1.8637274549098195,-0.11468918873741647,-0.06582439318610214,-0.027198563871143756,0.08696204328313911,-0.31510395172695327,0.0,0.0
1.8837675350701402,-0.11612084389094703,-0.07158275767652794,-0.02544655178436047,0.08760060433916439,-0.44225804436229954,0.0,0.0
1.9038076152304608,-0.11771778487214163,-0.07984704905973018,-0.023596362160219583,0.09250948120704429,-0.07716661107970207,0.0,0.0
1.9238476953907815,-0.11933808018517207,-0.08101476565152214,-0.02184981974537635,0.08732712074216162,-0.5679934850005799,0.0,0.0
1.9438877755511021,-0.12117375612181473,-0.09178379683213339,-0.019908871732491697,0.09704740064423263,0.18885627678209904,0.0,0.0
1.9639278557114228,-0.12293003626352558,-0.08781400708554252,-0.018203902756329052,0.08524844880813226,-0.271012293344905,0.0,0.0
1.9839679358717435,-0.1247868558523454,-0.09284097944099114,-0.01645520996043527,0.08743463979468902,-0.04096724312819455,0.0,0.0
2.004008016032064,-0.1266549483377174,-0.09340462426860038,-0.014786312504976067,0.08344487277296016,-0.30435089607359717,0.0,0.0
2.024048096192385,-0.12863756896776685,-0.09913103150247238,-0.013032634949034274,0.08768387779708967,-0.378750196648194,0.0,0.0
2.0440881763527052,-0.13076425275108675,-0.10633418916599433,-0.011139597838650478,0.09465185551918981,0.060670196438423196,0.0,0.0
2.064128256513026,-0.1328640708762557,-0.10499090625844744,-0.009352290114945976,0.08936538618522516,-0.5788881343929675,0.0,0.0
2.0841683366733466,-0.13518710571536302,-0.11615174195536525,-0.007285337405374369,0.10334763547858034,0.12445642987440053,0.0,0.0
2.1042084168336674,-0.13745948795255916,-0.11361911185980711,-0.005337124774796131,0.09741063152891187,-0.11019123571245512,0.0,0.0
2.124248496993988,-0.1397733407956674,-0.11569264215541177,-0.003358108518267537,0.09895081282642973,0.22807233602060153,0.0,0.0
2.1442885771543083,-0.14199723203265702,-0.11119456184948172,-0.0015336829318589756,0.09122127932042806,-0.022283340843538252,0.0,0.0
2.164328657314629,-0.14422937944810846,-0.11160737077257185,0.0002941067530117421,0.09138948424353588,0.035952795501726836,0.0,0.0
2.1843687374749496,-0.1464475813995787,-0.11091009757351192,0.0021027195760367923,0.09043064115125252,0.0869285905203482,0.0,0.0
2.2044088176352705,-0.14863246393973056,-0.10924412700759337,0.0038737408692759477,0.08855106466195777,0.24987751535211622,0.0,0.0
2.224448897795591,-0.1507209476191305,-0.10442418396999688,0.005523018585378138,0.08246388580510948,-0.1062625743834068,0.0,0.0
2.244488977955912,-0.15285247996562176,-0.10657661732456364,0.0072692828848254535,0.08731321497236579,-0.19446155575826402,0.0,0.0
2.2645290581162323,-0.15506197846997175,-0.11047492521749921,0.00917513659466888,0.09529268549217133,0.3585769415700359,0.0,0.0
2.284569138276553,-0.1571341799100517,-0.10361007200399909,0.010929097355947902,0.08769803806395109,0.1568097443895005,0.0,0.0
2.3046092184368736,-0.1591483214016159,-0.10070707457820861,0.012660249464186151,0.08655760541191247,0.3331945029088249,0.0,0.0
2.3246492985971945,-0.16103606985138763,-0.09438742248858745,0.014276339395523101,0.08080449656684746,0.3409778358431657,0.0,0.0
2.344689378757515,-0.16279485153550344,-0.08793908420579043,0.01578300930362033,0.07533349540486142,0.4056312789792319,0.0,0.0
2.3647294589178354,-0.1643998696169604,-0.08025090407284828,0.0171519488576637,0.06844697770216855,0.41302996434081224,0.0,0.0
2.3847695390781563,-0.1658486298519501,-0.07243801174948494,0.01838746802030478,0.06177595813205385,0.4580649171479636,0.0,0.0
2.4048096192384767,-0.16712391347568914,-0.06376418118695285,0.019471023450975893,0.05417777153355564,0.4719833209378004,0.0,0.0
2.4248496993987976,-0.1682206004448498,-0.05483434845803266,0.020401312855512315,0.0465144702268211,0.22655858679693427,0.0,0.0
2.444889779559118,-0.16923472614758098,-0.05070628513655924,0.021327739944083945,0.04632135442858151,0.30311007028082415,0.0,0.0
2.464929859719439,-0.1701366847028285,-0.045097927762375555,0.022211378922574,0.044181948924502785,0.353289269134675,0.0,0.0
2.4849699398797593,-0.1709071489821717,-0.03852321396716085,0.02302845890825207,0.04085399928390344,0.3992165652994168,0.0,0.0
2.50501002004008,-0.1715284320601871,-0.031064153900769623,0.023757276957951545,0.03644090248497373,0.401236521524382,0.0,0.0
2.5250501002004007,-0.17199995490500067,-0.02357614224067752,0.024401250725229324,0.03219868836388885,0.43787555896117475,0.0,0.0
2.5450901803607215,-0.17230760545750823,-0.01538252762537842,0.02494301822534236,0.027088375005651803,0.47272647021916714,0.0,0.0
2.565130260521042,-0.17243794015338215,-0.0065167347936963375,0.025365618893437143,0.02113003340473908,0.4903546431455408,0.0,0.0
2.5851703406813624,-0.17238420172925786,0.0026869212062148908,0.02566141180353348,0.014789645504816987,0.5006017269137986,0.0,0.0
2.6052104208416833,-0.17214247668367222,0.012086252279282138,0.025826271993989878,0.008243009522819774,0.5041990923187725,0.0,0.0
2.6252505010020037,-0.17171140868131218,0.021553400118002324,0.02585913655795858,0.001643228198435165,0.3410404155842112,0.0,0.0
2.6452905811623246,-0.17115467284226996,0.027836791952111747,0.0258556199042293,-0.00017583268646403308,0.3786395074643446,0.0,0.0
2.665330661322645,-0.17045759673085595,0.03485380557070055,0.02579371380238776,-0.0030953050920768965,0.3952435127770236,0.0,0.0
2.685370741482966,-0.16961368358883694,0.04219565710095021,0.02566331844606852,-0.006519767815962035,0.3838440804142229,0.0,0.0
2.7054108216432864,-0.16862734414437813,0.04931697222294026,0.025470276887244125,-0.009652077941219707,0.3946540188577104,0.0,0.0
2.7254509018036073,-0.16749430489208422,0.056651962614695475,0.025207049891313258,-0.013161349796543303,0.399404972620004,0.0,0.0
2.7454909819639277,-0.1662126364399148,0.064083422608472,0.0248691983186535,-0.01689257863298781,0.4002922012849455,0.0,0.0
2.7655310621242486,-0.16478189563172782,0.07153704040934906,0.024454071466996005,-0.020756342582874815,0.3938834144335112,0.0,0.0
2.785571142284569,-0.16320446410289952,0.07887157644141572,0.023962797523547606,-0.024563697172419907,0.38141660361702395,0.0,0.0
2.8056112224448895,-0.1614850655458515,0.0859699278523996,0.02339956691273805,-0.028161530540477858,0.3767653665757698,0.0,0.0
2.8256513026052104,-0.15962535330986505,0.09298561179932305,0.022763545793287102,-0.031801055972547274,0.23687079337705155,0.0,0.0
2.845691382765531,-0.15767973334188723,0.09728099839889065,0.022132531421762178,-0.03155071857624626,0.2525162272290083,0.0,0.0
2.8657314629258517,-0.15564191976249017,0.10189067896985222,0.021493394239445074,-0.03195685911585513,0.25877253025596125,0.0,0.0
2.885771543086172,-0.15350928807541922,0.10663158435354703,0.02083844405725328,-0.032747509109589665,0.26189786500404566,0.0,0.0
2.905811623246493,-0.151280430973576,0.11144285509216088,0.020161721881338007,-0.03383610879576358,0.2605290985659654,0.0,0.0
2.9258517034068134,-0.14895568855508015,0.11623712092479196,0.01945975963027756,-0.0350981125530223,0.2575717245950296,0.0,0.0
2.9458917835671343,-0.14653601357523385,0.1209837489923144,0.018729859124784833,-0.03649502527463627,0.25112829586784624,0.0,0.0
2.9659318637274548,-0.14402371109238363,0.1256151241425108,0.017971184851105357,-0.037933713683973726,0.24229039880541015,0.0,0.0
2.9859719438877756,-0.14142201228400603,0.13008494041887933,0.01718412036530684,-0.03935322428992581,0.23167176897520192,0.0,0.0
3.006012024048096,-0.13873483507376297,0.13435886051215296,0.016369911827162183,-0.04071042690723284,0.21895610821467767,0.0,0.0
3.0260521042084165,-0.13596690791956703,0.13839635770979752,0.015530860911001513,-0.04195254580803352,0.15830000002096756,0.0,0.0
3.0460921843687374,-0.13314165946016646,0.14126242297002842,0.014697152858250332,-0.04168540263755903,0.1523321109537942,0.0,0.0
3.066132264529058,-0.13026117955547142,0.14402399523475137,0.013867020497999807,-0.041506618012526246,0.1446754594962503,0.0,0.0
3.0861723446893787,-0.127328218078659,0.14664807384062173,0.013039707053893922,-0.04136567220529423,0.13897323597517836,0.0,0.0
3.106212424849699,-0.12434476305384928,0.14917275124048507,0.012213330446037885,-0.04131883039280184,0.129055234083376,0.0,0.0
