time,x,x_dot,theta,theta_dot,u,x_ref,theta_ref
0.0,1.7697647850816671,-0.03857232784225198,-0.09803734623425685,-0.05547629500195581,5.819440279009283,0.0,0.0
0.02004008016032064,1.771290542063297,0.07628784908148942,-0.10314916651245315,-0.2555910139098153,4.249065241212744,0.0,0.0
0.04008016032064128,1.7745023138515599,0.16058858941314963,-0.11138005956151159,-0.4115446524529217,1.766594135977031,0.0,0.0
0.06012024048096192,1.7784341012428786,0.1965893695659348,-0.12133676667642865,-0.4978353557458529,1.5680187889152606,0.0,0.0
0.08016032064128256,1.7830109333640896,0.22884160606054393,-0.13296459342392308,-0.5813913373747217,-1.9697107233914983,0.0,0.0
0.1002004008016032,1.7868568629544324,0.1922964795171405,-0.14428546559216437,-0.5660436084120647,0.1572165328860522,0.0,0.0
0.12024048096192384,1.7908038767877532,0.19735069166604371,-0.15660122465394175,-0.6157879530888679,-7.093286816433194,0.0,0.0
0.1402805611222445,1.7920307468212777,0.061343501676226486,-0.165805698038709,-0.46022366923836294,-1.1581272689542947,0.0,0.0
0.16032064128256512,1.7928524701147612,0.041086164674178964,-0.17538103053755433,-0.4787666249422666,-3.415150234008643,0.0,0.0
0.18036072144288576,1.7923928310995325,-0.022981950761435603,-0.18409030677596808,-0.43546381192068706,-2.180657557947608,0.0,0.0
0.2004008016032064,1.7911351038292758,-0.06288636351283206,-0.1926990886207479,-0.43043909223899063,-2.7168310249090264,0.0,0.0
0.22044088176352705,1.7888730767359198,-0.11310135466779825,-0.20095559518915232,-0.4128253284202218,-3.2583520589728834,0.0,0.0
0.24048096192384769,1.7853984876553903,-0.17372945402647677,-0.20860392279686207,-0.38241638038548786,-3.7851513157503995,0.0,0.0
0.2605210420841683,1.7805087549014367,-0.24448663769768775,-0.21539380422709528,-0.3394940715116602,-4.261271949016288,0.0,0.0
0.280561122244489,1.774020868313568,-0.3243943293934338,-0.221099272187885,-0.285273398039486,-4.568583540547515,0.0,0.0
0.3006012024048096,1.7658172168467627,-0.4101825733402656,-0.2255840035103354,-0.22423656612251924,-4.795851575269574,0.0,0.0
0.32064128256513025,1.7558109634580377,-0.500312669436249,-0.22874937616037735,-0.15826863250209816,-4.949319064179665,0.0,0.0
0.3406813627254509,1.743943548300386,-0.5933707578825812,-0.2305299412430675,-0.0890282541345066,-5.035322022470421,0.0,0.0
0.3607214428857715,1.7301821763740548,-0.6880685963165551,-0.23088915684297895,-0.017960779995573023,-5.036236083778165,0.0,0.0
0.3807615230460922,1.7145266400243462,-0.7827768174854258,-0.22982900808498857,0.05300743789951835,-4.993723471560996,0.0,0.0
0.4008016032064128,1.6969931188573335,-0.8766760583506295,-0.22736635892014811,0.12313245824202265,-4.902048092755382,0.0,0.0
0.42084168336673344,1.6776164208100084,-0.9688349023662505,-0.2235363797907403,0.19149895647039028,-1.2221973020443846,0.0,0.0
0.4408817635270541,1.657826077843514,-0.9895171483247133,-0.22040440934457342,0.15659852230834415,-1.4601245748872926,0.0,0.0
0.4609218436873747,1.637528773277575,-1.014865228296959,-0.2178155635122174,0.12944229161780074,-1.7936453696611294,0.0,0.0
0.48096192384769537,1.6165941251103213,-1.046732408362685,-0.21556373276902727,0.11259153715950586,-2.261064915766898,0.0,0.0
0.501002004008016,1.5948397321563044,-1.0877196477008522,-0.21336842892581626,0.10976519216055092,-2.621781446613415,0.0,0.0
0.5210420841683366,1.5721246716185437,-1.1357530268880307,-0.21101001142943288,0.11792087481916874,-2.9201686543387217,0.0,0.0
0.5410821643286573,1.5483321882440606,-1.1896241687241624,-0.2083030755520361,0.13534679386983964,-3.129276274092481,0.0,0.0
0.561122244488978,1.5233801270943323,-1.2476030574864114,-0.20511065963704211,0.15962079574969926,-3.326568907421032,0.0,0.0
0.5811623246492986,1.497190761159831,-1.30946829672507,-0.2012991891367298,0.19057352501561525,-3.5039052220872806,0.0,0.0
0.6012024048096192,1.4696939140598348,-1.3748423549998035,-0.1967422261462985,0.2278481495215664,-3.6215734710910534,0.0,0.0
0.6212424849699398,1.4408423712304104,-1.442577141471226,-0.1913423429893005,0.2699941578498995,-3.7470434419514396,0.0,0.0
0.6412825651302605,1.410585597064815,-1.5128387082797683,-0.18499191570569457,0.31752136418029747,-3.8126086465200086,0.0,0.0
0.6613226452905812,1.3788960504267156,-1.5844773319049639,-0.17761120204457878,0.3690356830557888,-3.757934371842097,0.0,0.0
0.6813627254509018,1.3457926635078994,-1.6551693459408152,-0.1691826172197461,0.42142924124163483,-3.7047843243370018,0.0,0.0
0.7014028056112224,1.3112934572348942,-1.7249603136502603,-0.15968092175683268,0.4750847731456706,-3.622432188130578,0.0,0.0
0.721442885771543,1.2754275063079552,-1.7932975463469538,-0.14909080981303344,0.5295055971899625,-3.5114421166400263,0.0,0.0
0.7414829659318637,1.2382347316508944,-1.859638732853044,-0.1374066345171692,0.5842087647932116,-3.361563098076292,0.0,0.0
0.7615230460921844,1.1997699123807388,-1.9232409635077803,-0.12463846516199618,0.6384084677586506,-3.1798749369612684,0.0,0.0
0.781563126252505,1.160099953465585,-1.9834979457576982,-0.11080825125003307,0.6915106955981555,-2.9752730974852324,0.0,0.0
0.8016032064128256,1.1193004460795932,-2.03997536929958,-0.09594497149428918,0.7431639877871945,-2.7537806981572333,0.0,0.0
0.8216432865731462,1.0774533452747173,-2.092355040243804,-0.08008144516411136,0.7931763165088906,-3.0896504327587055,0.0,0.0
0.8416833667334669,1.0344230103367782,-2.15151674689695,-0.06291994268750603,0.858075123830267,-2.6210967144091786,0.0,0.0
0.8617234468937875,0.9903872301180786,-2.2017890109349767,-0.04462369107890912,0.9148125804298453,-2.1908053161060224,0.0,0.0
0.8817635270541082,0.9455087086065175,-2.243926075578054,-0.025327511105293268,0.9648089986807927,-1.7060663208783404,0.0,0.0
0.9018036072144289,0.8999712631872049,-2.2768722709656295,-0.005192696259762899,1.0067407422765184,-1.2961274826638087,0.0,0.0
0.9218436873747494,0.8539294217372232,-2.302092072499085,0.015667716016171833,1.0430206137967366,-0.8720011881197396,0.0,0.0
0.9418837675350701,0.8075431512142512,-2.3193135261486,0.037136450690318366,1.0734367337073267,-0.3495673212784508,0.0,0.0
0.9619238476953907,0.7610106849669506,-2.3266233123650317,0.0590423666567416,1.0952957983211615,0.1372621966036328,0.0,0.0
0.9819639278557114,0.7145162691074207,-2.32472079297649,0.08123809280979288,1.1097863076525643,0.6649677187049611,0.0,0.0
1.002004008016032,0.6682599928460945,-2.312813813066312,0.10355486672781367,1.1158386959010387,1.2860147588855866,0.0,0.0
1.0220440881763526,0.6224782226237602,-2.2890885111167143,0.12577157196184757,1.1108352617016957,3.0681041192670397,0.0,0.0
1.0420841683366733,0.5778597164685245,-2.2309253077617845,0.14699537294576204,1.0611900491957236,2.960830813595977,0.0,0.0
1.062124248496994,0.534356542327822,-2.1751587070351266,0.16742593738277364,1.0215282218505808,3.436695799281262,0.0,0.0
1.0821643286573146,0.49214812161992527,-2.110421035394837,0.18692198420147452,0.9748023409350433,3.9114188395158966,0.0,0.0
1.1022044088176353,0.45141342303595827,-2.036734929198349,0.20533934043857566,0.9208678118550568,4.3309930379596935,0.0,0.0
1.122244488977956,0.41230998808163677,-1.9551717477160737,0.22256088173609326,0.8610770648758795,4.748787528439372,0.0,0.0
1.1422845691382766,0.3749947680833329,-1.8657609999151943,0.23846496345822452,0.795204086106563,5.132587445618259,0.0,0.0
1.1623246492985972,0.3396116581740134,-1.7691554954659725,0.2529427071073852,0.7238871824580341,5.478730290652028,0.0,0.0
1.1823647294589177,0.3062901597500206,-1.6660749211996397,0.26589887880232843,0.6478085847471619,5.785566714709084,0.0,0.0
1.2024048096192383,0.27514482959185316,-1.5572665079083712,0.2772516436546219,0.5676382426146738,6.049766542041761,0.0,0.0
1.222444889779559,0.24627407602152854,-1.4435376785162304,0.2869333167523013,0.4840836548839723,9.999999999999986,0.0,0.0
1.2424849699398797,0.22120679590372966,-1.2533640058899438,0.29280952028765156,0.29381017676751164,9.999999999999988,0.0,0.0
1.2625250501002003,0.19993989587568456,-1.0633450014022543,0.29492736030345207,0.10589200079002595,9.999998003514937,0.0,0.0
1.282565130260521,0.18247212878236502,-0.8733883546659764,0.29330403205868777,-0.08116641223821397,9.219882696689641,0.0,0.0
1.3026052104208417,0.16850152984434225,-0.6985299469011383,0.2883610585878254,-0.24714867354311942,8.130142467908044,0.0,0.0
1.3226452905811623,0.15760752118707846,-0.5447004328631886,0.2806676238539436,-0.38467173669409,7.179992001490376,0.0,0.0
1.342685370741483,0.14942463085483876,-0.4091445166119858,0.2706968047471149,-0.4985409553414366,6.335818438007739,0.0,0.0
1.3627254509018036,0.1436290999916684,-0.28977654315851775,0.25884885313397643,-0.5923975806569224,5.4407283675679325,0.0,0.0
1.3827655310621243,0.13987771693289447,-0.18756915293869605,0.2455428328384328,-0.6653010147771811,4.678196740116902,0.0,0.0
1.4028056112224447,0.137878828836974,-0.09994440479602294,0.2311169453119102,-0.7212943763261302,3.961191322008287,0.0,0.0
1.4228456913827654,0.13735844077475265,-0.026019403111067083,0.2158796839582282,-0.7618630676841005,3.256726052873968,0.0,0.0
1.442885771543086,0.13804730637938514,0.034443280231624344,0.20013050107995123,-0.7874591439138482,2.5953485293723513,0.0,0.0
1.4629258517034067,0.13969274025184836,0.08227169362316095,0.18414418044808512,-0.7993160315933057,1.801440545049028,0.0,0.0
1.4829659318637274,0.14199022978308204,0.1148744765616839,0.16827289944826793,-0.7935640499908593,1.2580944150000786,0.0,0.0
1.503006012024048,0.14473247830811736,0.1371124262517659,0.15272848044644272,-0.7772209500912601,0.6812158341659997,0.0,0.0
1.5230460921843687,0.14769886873985405,0.14831952158683395,0.13774596726849064,-0.749125658897604,-0.32983483166237404,0.0,0.0
1.5430861723446894,0.15049929576670884,0.1400213513427401,0.123816770273736,-0.6964598497377322,-0.5762004228809089,0.0,0.0
1.56312625250501,0.15304120265826213,0.12709534457766397,0.11099787470273106,-0.640944778550247,-0.6789511835058907,0.0,0.0
1.5831663326653307,0.15528776254214713,0.11232799419424988,0.09926991961016321,-0.5863977546283928,-0.7074274211565428,0.0,0.0
1.6032064128256511,0.15723088080536488,0.09715591316088769,0.08857698810464268,-0.5346465752760264,-0.7341979642863088,0.0,0.0
1.6232464929859718,0.15886291041081854,0.08160148027268287,0.07886839688758776,-0.485429560852746,-0.9080786662046217,0.0,0.0
1.6432865731462925,0.16011860412759263,0.06278468583870421,0.07018517944034518,-0.43416087236212886,-0.8834799746499128,0.0,0.0
1.6633266533066131,0.16100987821998014,0.04456370461937509,0.062458997621571935,-0.38630909093866217,-0.8851516648480248,0.0,0.0
1.6833667334669338,0.1615381716791593,0.02641467295895716,0.05564267657520042,-0.3408160523185757,-0.8621042681844274,0.0,0.0
1.7034068136272544,0.16171433890621115,0.0088083613525922,0.04968020390144488,-0.29812363368777656,-0.8373847649430992,0.0,0.0
1.723446893787575,0.16154966758105388,-0.008233566257863024,0.04451985638328938,-0.2580173759077752,-0.7507075351398779,0.0,0.0
1.7434869739478958,0.16107940849076918,-0.02351295451423478,0.04007867713717626,-0.2220589623056559,-0.7069936672858279,0.0,0.0
1.7635270541082164,0.16032185858303727,-0.037877495386595544,0.036303271484364935,-0.18877028264056636,-0.6446098805922603,0.0,0.0
1.783567134268537,0.15930241883743249,-0.050971987280239384,0.03313347959555976,-0.15848959444025876,-0.5603051654787621,0.0,0.0
1.8036072144288577,0.15805487761810852,-0.06237706096619866,0.030500106075617806,-0.13166867599709778,-0.48741972909309444,0.0,0.0
1.8236472945891782,0.15660841931794683,-0.07232291500808403,0.02834398394220327,-0.1078061066707268,-0.16282885860160368,0.0,0.0
1.8436873747494988,0.15509031150275818,-0.07590539075943283,0.026461762036027115,-0.09411109530880775,-0.060607941310815816,0.0,0.0
1.8637274549098195,0.1535409776795869,-0.07746669115856333,0.02478181332592205,-0.08399743550525332,-0.10198926871753403,0.0,0.0
1.8837675350701402,0.15194475002477037,-0.07981138274082764,0.02331775098368146,-0.07320311711202947,-0.04494769244451442,0.0,0.0
1.9038076152304608,0.15032430470108252,-0.08102226618439207,0.02202699290576976,-0.06453790389558503,-0.09321503505466787,0.0,0.0
1.9238476953907815,0.14866117603541065,-0.08315643328359362,0.02092963168137435,-0.05486806121977049,-0.0022435349956599765,0.0,0.0
1.9438877755511021,0.14699117587799077,-0.08350000787099496,0.019965549387445027,-0.048204114696466106,-0.05272686228038967,0.0,0.0
1.9639278557114228,0.1452948806512085,-0.08481476133911364,0.01915819351343798,-0.04036779370035233,0.006683544334640398,0.0,0.0
1.9839679358717435,0.1435957041003351,-0.08495882754367055,0.018467729062156216,-0.034523222564088234,-0.0123454829316159,0.0,0.0
2.004008016032064,0.14188641837056087,-0.08546428648871127,0.017900932575379683,-0.02833982433882671,0.047098770195468154,0.0,0.0
2.024048096192385,0.14019038180502294,-0.08480182827689621,0.017419464058510317,-0.024073425843468253,0.47479715280030776,0.0,0.0
2.0440881763527052,0.1386746276096137,-0.07578770977046316,0.016770139192717675,-0.03246624328963214,0.4932923212145971,0.0,0.0
2.064128256513026,0.13734655938121465,-0.06640341141995203,0.01593804299227768,-0.04160481002199983,0.3812216728566278,0.0,0.0
2.0841683366733466,0.1361626839879824,-0.059193769661612536,0.014983473280695743,-0.04772848557909682,0.24175100278269684,0.0,0.0
2.1042084168336674,0.13506885115064357,-0.0546916418669416,0.013981983747443779,-0.050074476662598226,0.15359459152181495,0.0,0.0
2.124248496993988,0.1340309475796465,-0.05189517854985327,0.012978820946502776,-0.05015814004705017,0.03443753787486785,0.0,0.0
2.1442885771543083,0.1330027631583247,-0.05140922106608938,0.012037355412760556,-0.04707327668711096,0.029814313478439006,0.0,0.0
2.164328657314629,0.13198276347473023,-0.05099998417972373,0.01115435506167645,-0.04415001755420534,-0.00012269564436549057,0.0,0.0
2.1843687374749496,0.1309595193800161,-0.05116220473570706,0.01034176326688269,-0.040629589739688034,-0.006483593309753462,0.0,0.0
2.2044088176352705,0.1299307814734664,-0.051436895327484904,0.009598177104708467,-0.037179308108711104,-0.021457223171837875,0.0,0.0
2.224448897795591,0.1288909197090484,-0.05199308822090081,0.008927666703235316,-0.03352552007365753,0.23085990150751287,0.0,0.0
2.244488977955912,0.12793858631816854,-0.04761666954399321,0.008178412171607464,-0.037462726581392665,0.2704387266696371,0.0,0.0
2.2645290581162323,0.12708944075638856,-0.042457278088999476,0.007322536238562208,-0.042793796652262774,0.2085492957887956,0.0,0.0
2.284569138276553,0.12631957768218482,-0.03849315371018688,0.006390843276404623,-0.04658464810787924,0.0245349362484987,0.0,0.0
2.3046092184368736,0.1255574572248146,-0.038106022868511565,0.005485098311336615,-0.045287248253400414,-0.049906230362690956,0.0,0.0
2.3246492985971945,0.1247742901205471,-0.03915835521337525,0.004643135194393872,-0.04209815584713715,-0.055721526931461575,0.0,0.0
2.344689378757515,0.12396804834558887,-0.040312088747911416,0.0038630465756766515,-0.03900443093586103,-0.07203587622911557,0.0,0.0
2.3647294589178354,0.123132589159343,-0.04177295931229408,0.003149456842445748,-0.03567948666154519,-0.08900858742425885,0.0,0.0
2.3847695390781563,0.12226149386116461,-0.04355476490891941,0.0025077948327972242,-0.03208310048242619,-0.08550772317697101,0.0,0.0
2.4048096192384767,0.12135631246263438,-0.04525906992651145,0.0019319664850220438,-0.028791417388759018,-0.08303355610823335,0.0,0.0
2.4248496993987976,0.1204181754745214,-0.04690684940564937,0.0014168934131837492,-0.025753653591914727,0.16288098777975993,0.0,0.0
2.444889779559118,0.11954319276931688,-0.043749135260225905,0.0008154743088257198,-0.030070955217901468,0.11591245275697173,0.0,0.0
2.464929859719439,0.11871320839195437,-0.04149921886812517,0.00015139188812469387,-0.0332041210350513,-0.01644983801411301,0.0,0.0
2.4849699398797593,0.11787676146773608,-0.04182234621091475,-0.0005021131389759613,-0.032675251355032756,-0.039562892661936445,0.0,0.0
2.50501002004008,0.11702501998548795,-0.04258707411240692,-0.0011356412426341421,-0.03167640518290904,-0.07235337628786667,0.0,0.0
2.5250501002004007,0.11614536982664424,-0.04398250794218542,-0.001734005904616347,-0.02991823309911024,-0.11656928395507515,0.0,0.0
2.5450901803607215,0.11522072830336971,-0.04623207616372606,-0.0022751153555281103,-0.027055472545588172,-0.07882572135260804,0.0,0.0
2.565130260521042,0.11426597903772212,-0.04773746328237991,-0.0027844608289974465,-0.025467273673466812,-0.13379115575292036,0.0,0.0
2.5851703406813624,0.11325981909476347,-0.05030799714793248,-0.00323310113469641,-0.022432015284948162,-0.11199327584568464,0.0,0.0
2.6052104208416833,0.11221088317708501,-0.052446795883923425,-0.0036366166182328404,-0.020175774176821534,-0.129557734839247,0.0,0.0
2.6252505010020037,0.1111124328527054,-0.05492251621898005,-0.003987277275686568,-0.01753303287268637,-0.04225281296117431,0.0,0.0
2.6452905811623246,0.10999863726232066,-0.05568977951923718,-0.004338365078397868,-0.017554390135565007,-0.1064477588208702,0.0,0.0
2.665330661322645,0.1088445465313466,-0.05770453654870295,-0.0046545420649329655,-0.01580884932675484,-0.11023851139010708,0.0,0.0
2.685370741482966,0.10764877204763958,-0.05978872418535177,-0.004935584667178146,-0.01405213011225903,-0.1270556773002344,0.0,0.0
2.7054108216432864,0.10640483189162164,-0.06219700780089685,-0.005173427760651803,-0.011892154673682888,-0.13238915003612103,0.0,0.0
2.7254509018036073,0.10511071299149623,-0.06470594500627068,-0.00536645137692516,-0.009651180813667826,-0.13849562071770086,0.0,0.0
2.7454909819639277,0.10376408778474805,-0.06733126033740888,-0.005512300733902814,-0.007292467848882704,-0.12632491213170624,0.0,0.0
2.7655310621242486,0.10236974740196175,-0.06971701913931463,-0.0056190150377860675,-0.0053357151941626595,-0.1486128682409452,0.0,0.0
2.785571142284569,0.10091902511478922,-0.07253611435862715,-0.00567422964208169,-0.00276073021478112,-0.14663270880303056,0.0,0.0
2.8056112224448895,0.09941270946159332,-0.07531578265979474,-0.0056794510767765455,-0.00026107173474275436,-0.1443845568201215,0.0,0.0
2.8256513026052104,0.09785167922544687,-0.07805151180732252,-0.005636027356724043,0.00217118600262516,-0.06070228300441487,0.0,0.0
2.845691382765531,0.09626857688666943,-0.07915511693887203,-0.005592635653960928,0.0021695851381557077,-0.07806056572925546,0.0,0.0
2.8657314629258517,0.09465661636870264,-0.08059802589833928,-0.005538848382822601,0.0026893635569163925,-0.08593961572663461,0.0,0.0
2.885771543086172,0.09301270764978026,-0.08219543594611932,-0.0054697173971352386,0.0034565492843681104,-0.09197196887304576,0.0,0.0
2.905811623246493,0.09133447693707712,-0.08391153563515671,-0.005381278036564539,0.004421968028534963,-0.0973725479929737,0.0,0.0
2.9258517034068134,0.0896197914366671,-0.0857342750205015,-0.0052698134390921315,0.005573229873620389,-0.09890625683819501,0.0,0.0
2.9458917835671343,0.08786802070428636,-0.08758853661903696,-0.005133723516510078,0.006804496129102651,-0.0951858137166395,0.0,0.0
2.9659318637274548,0.08608057753952143,-0.08937215823824608,-0.004974326379156153,0.007969856867696258,-0.09509193783068409,0.0,0.0
2.9859719438877756,0.08425745288269204,-0.09115623284146987,-0.004790671745301455,0.009182731692734912,-0.09237566424603158,0.0,0.0
3.006012024048096,0.08239965404676662,-0.09288994179627066,-0.004583190373469051,0.010374068591620197,-0.08829206437182455,0.0,0.0
3.0260521042084165,0.08050871508061033,-0.0945469483078145,-0.004352962609930053,0.011511388176949884,-0.059506273077440316,0.0,0.0
3.0460921843687374,0.07859580293912004,-0.09564560707451483,-0.0041153753346647665,0.011879363763264318,-0.06055780589279848,0.0,0.0
3.066132264529058,0.07666043918519885,-0.09676818769605953,-0.003868315185147398,0.012353007475868422,-0.059683834881444964,0.0,0.0
3.0861723446893787,0.07470289404707277,-0.09787725690630453,-0.0036107354195832556,0.012878988278207115,-0.057683839311788165,0.0,0.0
3.106212424849699,0.0727238741413539,-0.09895099528594377,-0.0033421816494980834,0.013427688504258604,-0.054482216317841586,0.0,0.0
