time,x,x_dot,theta,theta_dot,u,x_ref,theta_ref
0.0,1.773973810961614,0.004667925828148539,-0.17371562502838242,-0.036288244368770234,1.967296352096144,0.0,0.0
0.02004008016032064,1.7748818732512837,0.04540311448347843,-0.17665998444681286,-0.14721797092152206,1.215754459662795,0.0,0.0
0.04008016032064128,1.7763126900161559,0.07154083824361343,-0.1814085099409281,-0.237426274705762,-2.2470915921369117,0.0,0.0
0.06012024048096192,1.7769192614698095,0.03032857268267619,-0.18600189362381564,-0.22966918414437673,1.2316993156632106,0.0,0.0
0.08016032064128256,1.7780570491730139,0.056889385160217715,-0.1924645849915902,-0.3231345683887282,-3.3383837061391337,0.0,0.0
0.1002004008016032,1.777948871384954,-0.005408889402987366,-0.19821799795090336,-0.287670647965659,-0.9574832916932925,0.0,0.0
0.12024048096192384,1.7775229816191747,-0.021294488288966493,-0.20466164770833292,-0.32218248787147785,-1.0213257116535932,0.0,0.0
0.1402805611222445,1.7767562010416083,-0.03833902887831735,-0.21179922620743416,-0.3568789249550614,-1.6653780831667544,0.0,0.0
0.16032064128256512,1.775399839442607,-0.06781807995006284,-0.21930805232697012,-0.3754413059767979,-2.3994167987824877,0.0,0.0
0.18036072144288576,1.7731704514424886,-0.11146940000591843,-0.22681792328675252,-0.37549354798912027,-3.1809352952578713,0.0,0.0
0.2004008016032064,1.769766312301007,-0.1702069570740769,-0.23393333077996994,-0.3557703746608709,-3.9253657270053934,0.0,0.0
0.22044088176352705,1.7649001991550493,-0.24330565729788411,-0.24027900623467882,-0.3172837727354438,-4.4101045962754295,0.0,0.0
0.24048096192384769,1.7583857589378458,-0.32572201086017727,-0.24562313263290894,-0.26720631991150573,-4.798025407316189,0.0,0.0
0.2605210420841683,1.7500740428140336,-0.415585806190613,-0.24978278616234806,-0.20798267647195542,-5.111095309173779,0.0,0.0
0.280561122244489,1.7398448587274582,-0.5114592043287683,-0.25260982801729814,-0.14135209274750463,-5.288062365191526,0.0,0.0
0.3006012024048096,1.7276304711724055,-0.6107193777526292,-0.2540240520060335,-0.07071119943676733,-5.412547101019808,0.0,0.0
0.32064128256513025,1.7133830508059198,-0.7123710183242911,-0.25396515980853784,0.00294460987478333,-5.444731132507617,0.0,0.0
0.3406813627254509,1.6970901017235371,-0.8146474541191303,-0.25241464006600156,0.07752598712681519,-5.4202296591051775,0.0,0.0
0.3607214428857715,1.6787606136506494,-0.9164744036443864,-0.24937553007381336,0.1519554996094109,-5.335673913786803,0.0,0.0
0.3807615230460922,1.6584263775353514,-1.0167118057649072,-0.24487440916001083,0.22505604569012677,-5.176889383612095,0.0,0.0
0.4008016032064128,1.6361475196591313,-1.113942893811003,-0.23896976613910217,0.29523215104543304,-4.972110724707927,0.0,0.0
0.42084168336673344,1.6120015805870986,-1.2072969536016296,-0.2317367252226225,0.36165204582398325,-1.6435875235836277,0.0,0.0
0.4408817635270541,1.5872799767104324,-1.236080193833316,-0.2250133995162653,0.3361662853178601,-1.9026892415316001,0.0,0.0
0.4609218436873747,1.5618802126135216,-1.2699882048455413,-0.2186102190931598,0.3201590211552747,-2.13181086259904,0.0,0.0
0.48096192384769537,1.5357114556870168,-1.3084378463252353,-0.21235612352373578,0.3127047784712005,-2.370994278985181,0.0,0.0
0.501002004008016,1.5086789341425513,-1.3516260772232793,-0.20607479255319636,0.3140665485269717,-2.5053287812421545,0.0,0.0
0.5210420841683366,1.4807285946355748,-1.3975169753488206,-0.1996491158156686,0.32128383687638784,-2.652271029747455,0.0,0.0
0.5410821643286573,1.4518013981384028,-1.4463598248586036,-0.19295358187204315,0.3347766971812723,-2.7743614181081666,0.0,0.0
0.561122244488978,1.4218478588280312,-1.4976769655185842,-0.1858748832339862,0.3539349319028464,-2.870699971827328,0.0,0.0
0.5811623246492986,1.3908283678227094,-1.5509745502660939,-0.17831176317007877,0.37815600319537196,-2.950464111189541,0.0,0.0
0.6012024048096192,1.3587095969177605,-1.6059385452474384,-0.17016915577202882,0.4071303699024975,-2.987523989072348,0.0,0.0
0.6212424849699398,1.3254746498554502,-1.6617473531155211,-0.16137264816907743,0.43982538014756933,-4.432614030953804,0.0,0.0
0.6412825651302605,1.2905580058625374,-1.7458321996456339,-0.15103209220420188,0.5170277982437771,-4.121567489833333,0.0,0.0
0.6613226452905812,1.2540774588401546,-1.8240273511191356,-0.13925797843934737,0.5887056882427262,-3.7832292896869175,0.0,0.0
0.6813627254509018,1.2161610838414052,-1.8958187499374695,-0.12616798782289582,0.6544995308225781,-3.4111417460652693,0.0,0.0
0.7014028056112224,1.1769498217775312,-1.9605631031937052,-0.11189174799255527,0.7138119915170269,-3.059190855632437,0.0,0.0
0.721442885771543,1.1365765382909594,-2.0186641743285887,-0.09654059913841438,0.7675574427070445,-2.6482793437862107,0.0,0.0
0.7414829659318637,1.095196903352986,-2.0689817468986638,-0.08025431393040636,0.8143142604004014,-2.2267935070207847,0.0,0.0
0.7615230460921844,1.0529705814255015,-2.1113160963742295,-0.06317397127544881,0.8540171327478774,-1.7887874109169908,0.0,0.0
0.781563126252505,1.0100635878534667,-2.1453496786017365,-0.04544627838394574,0.8863846445751534,-1.2839890182349158,0.0,0.0
0.8016032064128256,0.9666679342667897,-2.1697826793338537,-0.0272537749330306,0.9096251725457573,-0.8695505442104399,0.0,0.0
0.8216432865731462,0.9229403455564951,-2.1863794355147284,-0.008723996854008199,0.92648890395112,0.3171842935201883,0.0,0.0
0.8416833667334669,0.8793388841085513,-2.180073072397188,0.00956545128631936,0.9144724070163779,0.7460068620737693,0.0,0.0
0.8617234468937875,0.8360259464820559,-2.165646881324776,0.02747861266888453,0.8956580691282585,0.5431249864055748,0.0,0.0
0.8817635270541082,0.7929174967148284,-2.1554224883613724,0.0452468025748953,0.8884094953005384,1.0480020120089888,0.0,0.0
0.9018036072144289,0.7502056901507347,-2.135590328204682,0.06268680214751994,0.8719999786312318,0.9675215472752385,0.0,0.0
0.9218436873747494,0.7078543403726696,-2.117567488903257,0.0799556425500069,0.863442020124348,1.2343973407628825,0.0,0.0
0.9418837675350701,0.6659628112500546,-2.09457645613075,0.09700672999533824,0.8525543722665675,1.558509765680118,0.0,0.0
0.9619238476953907,0.6246527963437132,-2.065500745317073,0.11375933900520836,0.837630450493506,2.0025731057285205,0.0,0.0
0.9819639278557114,0.5840927579547959,-2.0280019194458636,0.13006199890960693,0.8151329952199287,2.4033358459436833,0.0,0.0
1.002004008016032,0.5444342747871996,-1.9829241583798134,0.14578671942840782,0.7862360259400448,2.7037437500911365,0.0,0.0
1.0220440881763526,0.5057898519483363,-1.93222114194317,0.16086108435769525,0.7537182464643716,3.689610097941417,0.0,0.0
1.0420841683366733,0.4685390548172037,-1.862539856556629,0.17481448866246388,0.6976702152384311,3.934182852126938,0.0,0.0
1.062124248496994,0.4327727529061548,-1.7883150955524447,0.18759850087840613,0.639200610797112,4.155768947162604,0.0,0.0
1.0821643286573146,0.39857312264699685,-1.7099815129578964,0.1991711141591579,0.5786306640375884,4.349561278957523,0.0,0.0
1.1022044088176353,0.3660118154346303,-1.6280653606183269,0.2094990016119488,0.5163943726395446,4.524578690436684,0.0,0.0
1.122244488977956,0.3351535044328655,-1.5429155500882392,0.21855190794753257,0.45264531677918973,4.668630186985934,0.0,0.0
1.1422845691382766,0.30605117616142646,-1.4551164135719523,0.22630918505380387,0.38786385531356576,4.785419361910443,0.0,0.0
1.1623246492985972,0.2787476034892852,-1.365178633607065,0.2327573144407387,0.322406469346741,4.8692582186215425,0.0,0.0
1.1823647294589177,0.2532731608382048,-1.2737221325540202,0.23789284419196932,0.2567764875615314,4.925467916146844,0.0,0.0
1.2024048096192383,0.2296479131221692,-1.1812623858017797,0.24171917235224272,0.19131640801366923,4.9483589027293275,0.0,0.0
1.222444889779559,0.20787941736652085,-1.088424787782417,0.24424966039359014,0.12652440206737098,7.405129008346998,0.0,0.0
1.2424849699398797,0.18892139375364506,-0.9479011806437899,0.24411318383796565,-0.006823827781223785,6.86028588015297,0.0,0.0
1.2625250501002003,0.17256210711878492,-0.8179643317430065,0.241616819464328,-0.12481821868188253,6.251638809851805,0.0,0.0
1.282565130260521,0.15856596055419958,-0.6998073282292665,0.23708690535868132,-0.2264957052823343,5.692947447775678,0.0,0.0
1.3026052104208417,0.14671748268308116,-0.5924238935559216,0.23080774633355564,-0.31395795125628434,5.163014325356978,0.0,0.0
1.3226452905811623,0.1368129154857052,-0.49522835986879743,0.22303610911375776,-0.3885818609898941,4.683859310429907,0.0,0.0
1.342685370741483,0.12866863522127112,-0.4072140132217047,0.21399084623679643,-0.4522631438480675,4.1105584396963435,0.0,0.0
1.3627254509018036,0.12206468787690106,-0.33019736721850296,0.20393709904201038,-0.5026873597393031,3.633652084091832,0.0,0.0
1.3827655310621243,0.1168187632655698,-0.26229623056656304,0.19307988900404321,-0.5428605018983585,3.147406436937336,0.0,0.0
1.4028056112224447,0.11274500763317859,-0.2036877816195605,0.181625739457884,-0.5727074773079607,2.6918976689232434,0.0,0.0
1.4228456913827654,0.10966955165117144,-0.15377279910035724,0.1697611254184742,-0.5932307019704887,2.340207450779969,0.0,0.0
1.442885771543086,0.10745893036308128,-0.11053106440450822,0.1576114931242958,-0.6074816147089209,1.9042817454004712,0.0,0.0
1.4629258517034067,0.10594684841136454,-0.07560409758583728,0.1453500326720576,-0.6130730226119101,1.5241449727118592,0.0,0.0
1.4829659318637274,0.10498866169769387,-0.04790933568353317,0.13311812393589467,-0.6115954368081464,0.8472615869260649,0.0,0.0
1.503006012024048,0.10432398171693523,-0.033233999037931956,0.1212300601238777,-0.5944031906008483,0.4657105273564266,0.0,0.0
1.5230460921843687,0.10380729996927368,-0.025834087383077138,0.10983240975883371,-0.5698825182521992,-0.13129167024709099,0.0,0.0
1.5430861723446894,0.1032089216675214,-0.029918915087614486,0.09920060410096027,-0.5315902828936725,-0.8074280156672275,0.0,0.0
1.56312625250501,0.10226800725423002,-0.047045720664568844,0.08966173682232186,-0.4769433639319207,-0.7565052604146697,0.0,0.0
1.5831663326653307,0.10100690704542768,-0.06305501044011658,0.08112709625507694,-0.42673202836224566,-0.7692077663854773,0.0,0.0
1.6032064128256511,0.09942293275915778,-0.07919871431349462,0.07355107899651095,-0.37880086292829956,-0.7275778152972272,0.0,0.0
1.6232464929859718,0.0975343581409622,-0.09442873090977894,0.06686226294488322,-0.33444080258138625,-1.2689990083234424,0.0,0.0
1.6432865731462925,0.09513179247796874,-0.12012828314967322,0.061334842096607126,-0.27637104241380456,-0.9460750671799611,0.0,0.0
1.6633266533066131,0.09234270442612114,-0.13945440259238048,0.056745950819771095,-0.22944456384180162,-0.7717447931529132,0.0,0.0
1.6833667334669338,0.08923636372003542,-0.15531703530428592,0.0529651546271942,-0.18903980962884476,-0.615267886268378,0.0,0.0
1.7034068136272544,0.08587486525379336,-0.16807492331210336,0.04987741471091624,-0.154386995813898,-0.4521094013739581,0.0,0.0
1.723446893787575,0.0823227267365494,-0.17760692586219748,0.04736807535742481,-0.12546696767457166,-0.2525730110119069,0.0,0.0
1.7434869739478958,0.07865850342213172,-0.18321116572088408,0.04530481595761314,-0.10316296999058341,0.10946572070704447,0.0,0.0
1.7635270541082164,0.075024033152535,-0.18172351347983623,0.043463135495222606,-0.09208402311952653,0.07957243258535812,0.0,0.0
1.783567134268537,0.07140817627959599,-0.18079284364695083,0.04184890193313301,-0.08071167810447985,0.11572257006541414,0.0,0.0
1.8036072144288577,0.06782549699772134,-0.17913396409373253,0.04043082268455797,-0.0709039624287518,0.14196283180868152,0.0,0.0
1.8236472945891782,0.06428663769836782,-0.17694296496767567,0.03918462822387151,-0.06230972303432313,-0.17112898814912264,0.0,0.0
1.8436873747494988,0.060669790854737025,-0.18084234218153947,0.03828545505051684,-0.044958658667733783,-0.011818063661130696,0.0,0.0
1.8637274549098195,0.057037372164368286,-0.18162093451843694,0.03763453085929769,-0.03254620956095745,0.05168877508520428,0.0,0.0
1.8837675350701402,0.05341434632033315,-0.18115129220175683,0.03719063678856504,-0.022194703536632387,0.13441614081368952,0.0,0.0
1.9038076152304608,0.049833118904328746,-0.17906137080022008,0.036902621543056374,-0.014400762275433212,0.15661959847714835,0.0,0.0
1.9238476953907815,0.04630243560025727,-0.17653416520357387,0.03675569173774107,-0.007346490265765307,0.20394518789184463,0.0,0.0
1.9438877755511021,0.042840804189996064,-0.17308157051306025,0.03672125854688384,-0.001721659542861252,0.27184534890294065,0.0,0.0
1.9639278557114228,0.039474728293661825,-0.168303794816712,0.036759415821222545,0.0019078637169351463,0.32558463468166476,0.0,0.0
1.9839679358717435,0.036225165384783424,-0.16247814544391995,0.03683899248341415,0.003978833109580134,0.3525040001080842,0.0,0.0
2.004008016032064,0.033102596272942576,-0.15612845559204225,0.03694475561183843,0.005288156421213995,0.39087018637240234,0.0,0.0
2.024048096192385,0.03012196065700192,-0.14903178079703275,0.03705494675619075,0.00550955721761591,0.6573898176977615,0.0,0.0
2.0440881763527052,0.027387219430509695,-0.13673706132461141,0.03701447690193657,-0.0020234927127088702,0.6151562054782523,0.0,0.0
2.064128256513026,0.02488190518923475,-0.12526571206374723,0.03684777661485006,-0.008335014354325779,0.6015809178949217,0.0,0.0
2.0841683366733466,0.022600768928519477,-0.11405681303576354,0.03656172810846975,-0.014302425319015589,0.5843648597208358,0.0,0.0
2.1042084168336674,0.020537175353089653,-0.10317967877149128,0.03616458815149682,-0.0198569978486465,0.5642775153563494,0.0,0.0
2.124248496993988,0.01868340072127199,-0.09268873159088314,0.03566559065922123,-0.024949874613779444,0.5380206434976712,0.0,0.0
2.1442885771543083,0.01702934322309369,-0.08270287490891484,0.03507693323444409,-0.029432871238857076,0.5170324219149159,0.0,0.0
2.164328657314629,0.015566982504929562,-0.07311803590820647,0.03440716828507744,-0.033488247468332275,0.5020597676553554,0.0,0.0
2.1843687374749496,0.01429066866359049,-0.06381569206695359,0.03366082029122949,-0.03731739969239738,0.47420524128874825,0.0,0.0
2.2044088176352705,0.013189747306997799,-0.05504606782963454,0.03284946148319576,-0.040567940401686924,0.45531072933628314,0.0,0.0
2.224448897795591,0.012257078750214367,-0.04663342783917152,0.03197901665844924,-0.04352224123732606,0.6752966037805006,0.0,0.0
2.244488977955912,0.011578750579081669,-0.03391640855663493,0.030915381629888848,-0.053181751428019536,0.5750194940087985,0.0,0.0
2.2645290581162323,0.011115940805329464,-0.023140488687610206,0.029710465270426995,-0.0602458179730926,0.5256674680701817,0.0,0.0
2.284569138276553,0.01084973848964737,-0.013310115784104645,0.028385514732095312,-0.06624752691658412,0.45725470483864283,0.0,0.0
2.3046092184368736,0.010753829310009809,-0.004795458981878066,0.026972167053348425,-0.07066738393734438,0.37841073331222247,0.0,0.0
2.3246492985971945,0.01079785357629235,0.002201213314127054,0.02550760467446032,-0.07322811894440523,0.2921303541234533,0.0,0.0
2.344689378757515,0.010948564063281263,0.007535524349445671,0.024033039725594854,-0.07372824744327326,0.22493173290671714,0.0,0.0
2.3647294589178354,0.011180161802686734,0.011579886970273585,0.022578467111209505,-0.07272863071926752,0.17964108767913622,0.0,0.0
2.3847695390781563,0.011475390510758628,0.01476143540359474,0.02116119916295626,-0.07086339741266208,0.11695997260776114,0.0,0.0
2.4048096192384767,0.011810197054205945,0.01674032717236584,0.019808955677858585,-0.06761217425488383,0.06357759780870433,0.0,0.0
2.4248496993987976,0.012164137956797133,0.017697045129559417,0.01854443050314731,-0.06322625873556378,0.07237464956165543,0.0,0.0
2.444889779559118,0.012541007902554965,0.018843497287891618,0.017354506053625717,-0.05949622247607953,0.0507839358557096,0.0,0.0
2.464929859719439,0.01293272249055748,0.01958572940012576,0.016244307538511454,-0.05550992575571315,0.03556562915721293,0.0,0.0
2.4849699398797593,0.013333661112098587,0.02004693107705531,0.015215736109236202,-0.051428571463762555,0.02516885565132955,0.0,0.0
2.50501002004008,0.013740061249947722,0.02032000689245673,0.014268387665537178,-0.047367422184951186,0.023449759868731324,0.0,0.0
2.5250501002004007,0.014151523351705754,0.020573105087901573,0.013397294661966567,-0.0435546501785305,0.02062720426285945,0.0,0.0
2.5450901803607215,0.014567195465867542,0.020783605708089417,0.012598615683828883,-0.03993394890688422,0.02166450984049669,0.0,0.0
2.565130260521042,0.0149877111248655,0.021025782949897952,0.011866708133395219,-0.03659537752168323,0.023174051194757884,0.0,0.0
2.5851703406813624,0.015413869036268776,0.021307895570163795,0.011196074110494976,-0.03353170114501213,0.02562703547622564,0.0,0.0
2.6052104208416833,0.01584681852727742,0.02164747455043205,0.01058105014079694,-0.030751198484901782,0.028324533776302684,0.0,0.0
2.6252505010020037,0.01628778842506744,0.022048494889501058,0.01001618030194143,-0.028243491942775506,0.1916806678537259,0.0,0.0
2.6452905811623246,0.01680068592844582,0.025644875168918897,0.009402349222890604,-0.030691553952541306,0.15904564990590997,0.0,0.0
2.665330661322645,0.017372952076990376,0.028613307427227855,0.008754775200579386,-0.032378701115560904,0.12286594855847228,0.0,0.0
2.685370741482966,0.017990654331578503,0.03088511272940636,0.008090537466463908,-0.03321188670577394,0.07838755222511107,0.0,0.0
2.7054108216432864,0.01863662654496937,0.03229861066954354,0.0074314647951336625,-0.032953633566512236,0.03936367722300181,0.0,0.0
2.7254509018036073,0.01929582954093338,0.032960149798200306,0.006796228211195361,-0.03176182919691507,0.0009773118939337133,0.0,0.0
2.7454909819639277,0.01995346605797542,0.03288182585210198,0.0062032763776576315,-0.029647591676886506,-0.02991962021452854,0.0,0.0
2.7655310621242486,0.020597649260518717,0.03220916012716497,0.0056669437717520605,-0.02681663029527853,-0.01634655380516005,0.0,0.0
2.785571142284569,0.02123382938890167,0.031809006419147696,0.005175908724382209,-0.024551752368492604,-0.01750537793734183,0.0,0.0
2.8056112224448895,0.021861694959134655,0.031393278511649164,0.004727752755163436,-0.022407798460938624,-0.014883951473623442,0.0,0.0
2.8256513026052104,0.02248239735280464,0.031035119683499333,0.004318116438565785,-0.02048181582988257,0.16257820663666733,0.0,0.0
2.845691382765531,0.023165304234699848,0.03414534409476037,0.003840607125909203,-0.023875465632829076,0.11007468643809515,0.0,0.0
2.8657314629258517,0.02389006427690716,0.03623800211036559,0.003322926357336109,-0.025884038428654714,0.08703268281054169,0.0,0.0
2.885771543086172,0.024647834290820743,0.03788850069567911,0.0027752883988389297,-0.027381897924858952,0.03822801692589019,0.0,0.0
2.905811623246493,0.02541972640981952,0.038594605949938826,0.0022227890774812265,-0.027624966067885164,-0.00048740791140469003,0.0,0.0
2.9258517034068134,0.02619079123142107,0.0385532410800776,0.0016845917494208247,-0.02690986640302009,-0.0693287688272888,0.0,0.0
2.9458917835671343,0.02693431932425611,0.03717640464175197,0.0011975728641762196,-0.024350944262230254,-0.06906187921671995,0.0,0.0
2.9659318637274548,0.027650554419862597,0.03581175478032439,0.0007585052026604672,-0.02195338307578762,-0.06747374031968663,0.0,0.0
2.9859719438877756,0.028340242095767007,0.03448438379522057,0.0003636910109880103,-0.019740709583622847,-0.06688302908261559,0.0,0.0
3.006012024048096,0.02900372602594787,0.033174196509043186,1.0295052003411027e-05,-0.017669797949229963,-0.059102173711406594,0.0,0.0
3.0260521042084165,0.029644143796398046,0.03202088852250884,-0.00030846278130975703,-0.015937891665658403,0.16498898417640767,0.0,0.0
3.0460921843687374,0.03034903298425402,0.03524445939279865,-0.0007256799601651866,-0.020860858942771482,0.06270244801008633,0.0,0.0
3.066132264529058,0.031078598301393923,0.036478265856995123,-0.0011841525363683832,-0.022923628810159836,-0.0030855589231621044,0.0,0.0
3.0861723446893787,0.031807298962582706,0.03643503305943916,-0.0016482874059075084,-0.023206743476956258,-0.08679327274768152,0.0,0.0
3.106212424849699,0.03250260307486402,0.03476520561406592,-0.0020720446816897614,-0.021187863789112655,-0.0939454906492565,0.0,0.0
