time,x,x_dot,theta,theta_dot,u,x_ref,theta_ref
0.0,0.2925226277900226,0.005698229034040561,0.10546009592077044,0.062338553401921404,8.036879790239725,0.0,0.0
0.02004008016032064,0.29574028049697654,0.16088263534769898,0.10269866151709683,-0.13807172018368002,6.52506748105032,0.0,0.0
0.04008016032064128,0.3014730591776268,0.2866389340325127,0.09678919068744568,-0.29547354148255783,5.238415946263954,0.0,0.0
0.06012024048096192,0.3092212222491765,0.3874081535774838,0.0884405492721129,-0.4174320707666389,4.208973014346588,0.0,0.0
0.08016032064128256,0.31858599605583027,0.46823869033269055,0.07819700618004746,-0.5121771546032715,3.545033498312777,0.0,0.0
0.1002004008016032,0.3293116040573576,0.5362804000763673,0.0663787636421073,-0.5909121268970079,2.6078255394141667,0.0,0.0
0.12024048096192384,0.34103601336851413,0.5862204655578256,0.05345632926057134,-0.6461217190767983,2.3116554900398567,0.0,0.0
0.1402805611222445,0.35364744757310124,0.6305717102293557,0.039520065324437345,-0.6968131968066996,1.6081022980741093,0.0,0.0
0.16032064128256512,0.3668753930238262,0.6613972725362497,0.024892506150989226,-0.731377958672406,1.128089211972759,0.0,0.0
0.18036072144288576,0.3805366562692416,0.683063162270768,0.009761838913214776,-0.7565333618887224,0.09481715275287739,0.0,0.0
0.2004008016032064,0.39423223048390693,0.6847787107332676,-0.005362897331936234,-0.7562368122575505,-1.730855522133608,0.0,0.0
0.22044088176352705,0.40725385850574103,0.6510814010917052,-0.019508874234907617,-0.7072988451485691,-1.7352784120541704,0.0,0.0
0.24048096192384769,0.41960375448154025,0.6174947987899622,-0.032762707300765415,-0.66269165329289,-2.177490620572363,0.0,0.0
0.2605210420841683,0.4311131064098785,0.5754675964169113,-0.04494967795753671,-0.6093485328385649,-2.234868528036886,0.0,0.0
0.280561122244489,0.44176302262639117,0.5324958108256349,-0.05611365166287924,-0.5581986852671263,-2.393643479751155,0.0,0.0
0.3006012024048096,0.45149479747860743,0.4865887426108147,-0.06623300902613255,-0.5059678681626655,-2.582138986031727,0.0,0.0
0.32064128256513025,0.4602378698402897,0.43715361808411185,-0.07526241104009537,-0.4514701006981412,-2.698731181355766,0.0,0.0
0.3406813627254509,0.467949445967662,0.3855788063686165,-0.0831917615985849,-0.39646752792447687,-2.777805579946485,0.0,0.0
0.3607214428857715,0.474601066236917,0.3325810134627501,-0.09002596503563572,-0.34171017185254055,-2.8404950777255547,0.0,0.0
0.3807615230460922,0.4801703517196808,0.27846427413819097,-0.09577255851086613,-0.2873296737615208,-2.884659371224233,0.0,0.0
0.4008016032064128,0.484641832332599,0.22357403064590828,-0.10044294579984657,-0.2335193644490215,-2.8848521434743626,0.0,0.0
0.42084168336673344,0.4880168653049108,0.16875164861558817,-0.10406721678836278,-0.1812135494258109,-0.5355896984038901,0.0,0.0
0.4408817635270541,0.49121258675703217,0.1597860726060687,-0.10803457253764943,-0.19836778746433267,-0.7924725816621259,0.0,0.0
0.4609218436873747,0.49412994492615947,0.14586790845636619,-0.11222068925282332,-0.20930583575869427,-1.1206866837863956,0.0,0.0
0.48096192384769537,0.49664215495831204,0.12561050160762993,-0.11646134587078513,-0.21203283089809094,-1.3556233101553994,0.0,0.0
0.501002004008016,0.49865883384589266,0.1008339443790296,-0.12064702095954684,-0.20928375443808508,-1.528669110683599,0.0,0.0
0.5210420841683366,0.500113725680428,0.07274459172676535,-0.1247039061864244,-0.20284426134387765,-1.7728513866663875,0.0,0.0
0.5410821643286573,0.500912822022594,0.03995481710830208,-0.1285162497972674,-0.1906171805421503,-1.9918807982184574,0.0,0.0
0.561122244488978,0.5009718657871238,0.0029521882264888777,-0.13198148323228207,-0.17326167175073393,-2.181391224733489,0.0,0.0
0.5811623246492986,0.5002180191309121,-0.0376923328105831,-0.13501205722611626,-0.15152869969170912,-2.360647977054958,0.0,0.0
0.6012024048096192,0.49858232495037164,-0.08178470902702356,-0.13752368316058358,-0.12558129672336643,-2.5153631008265442,0.0,0.0
0.6212424849699398,0.49600524625391196,-0.12885393482298496,-0.13944302733456707,-0.09596720869917442,-3.2788745366706387,0.0,0.0
0.6412825651302605,0.4921898429597609,-0.19077016470755098,-0.1403408230872084,-0.044889787632067246,-3.317856652009426,0.0,0.0
0.6613226452905812,0.48712121381026685,-0.2534314574747032,-0.14020040869891276,0.007020719414782481,-3.2772551800059855,0.0,0.0
0.6813627254509018,0.48081514314792767,-0.3153035331169602,-0.13904435982854674,0.05780244351830077,-3.2158109744402705,0.0,0.0
0.7014028056112224,0.473295218709121,-0.37599622194033333,-0.13690066906532625,0.10718453816102408,-3.139888735862285,0.0,0.0
0.721442885771543,0.46459036332921855,-0.43524276899512176,-0.13379927409709502,0.15506974841156126,-3.0457913836456267,0.0,0.0
0.7414829659318637,0.45473628932286847,-0.4927037003175028,-0.1297744299654051,0.2012422065844948,-2.8996869424320835,0.0,0.0
0.7615230460921844,0.44378870062862813,-0.5473794347120171,-0.1248845808762719,0.2444924544566609,-2.7734844145910986,0.0,0.0
0.781563126252505,0.4317952927329453,-0.59967039478414,-0.11917114896312118,0.28567159565753586,-2.6714153311373803,0.0,0.0
0.8016032064128256,0.4187941175781864,-0.6500587577379454,-0.11265635730897845,0.32573958270713677,-2.54545361257889,0.0,0.0
0.8216432865731462,0.4048323140079103,-0.6980901785138061,-0.10537125772876003,0.3642549790109211,-2.9390281878182014,0.0,0.0
0.8416833667334669,0.38975423590517316,-0.7539039051368571,-0.0970401241888268,0.41655667699666143,-2.6615437164757396,0.0,0.0
0.8617234468937875,0.37366556072661106,-0.8044337589281061,-0.08777051423762312,0.46348049756018417,-1.9312507215827988,0.0,0.0
0.8817635270541082,0.35684833238640606,-0.8408614170102509,-0.077928067508956,0.4921223364333559,-1.7903950620322517,0.0,0.0
0.9018036072144289,0.3393546238886603,-0.8746854248872898,-0.06753207943891834,0.5197994035018834,-1.3254832888196095,0.0,0.0
0.9218436873747494,0.32136278577123983,-0.899591905871023,-0.05678760478674779,0.5372237326085276,-1.1160575854443098,0.0,0.0
0.9418837675350701,0.3029514545529709,-0.9205665609134454,-0.04574882042754481,0.551939217960149,-1.0253910337302032,0.0,0.0
0.9619238476953907,0.2841528714333331,-0.9399291559818902,-0.03439886970346466,0.5674975362040076,-0.6637281429005952,0.0,0.0
0.9819639278557114,0.2651049419601886,-0.9523964736572283,-0.022877453345375706,0.5760708179044477,-0.25989068121454517,0.0,0.0
1.002004008016032,0.24596200712274635,-0.957146741872112,-0.011348078897694852,0.5764687223840427,0.06715769150494233,0.0,0.0
1.0220440881763526,0.22684845761218544,-0.9556774755280448,7.056433303908628e-05,0.5709321615366969,0.4857695368631662,0.0,0.0
1.0420841683366733,0.20792444826025996,-0.9462004675962743,0.011205489568552683,0.5567462617756799,0.5056359737690136,0.0,0.0
1.062124248496994,0.18919460559201187,-0.9364921334124046,0.022115210715843762,0.5454860573645539,0.8131172528247235,0.0,0.0
1.0821643286573146,0.170775842761145,-0.9209381415433444,0.03268866321753296,0.5286726250844599,1.1237911069330948,0.0,0.0
1.1022044088176353,0.15278639410503797,-0.8994724328053504,0.04281094557582247,0.5061141179144756,1.2255840844544705,0.0,0.0
1.122244488977956,0.1352630955576613,-0.8761649273688332,0.05248657406711591,0.483781424564672,1.430346949111651,0.0,0.0
1.1422845691382766,0.11828306893138155,-0.8490013313139878,0.06165721188361094,0.4585318908247515,1.6143701929851975,0.0,0.0
1.1623246492985972,0.10191546590470743,-0.8183801513337055,0.07027362102877029,0.4308204572579676,1.7942492066239222,0.0,0.0
1.1823647294589177,0.08622795802110993,-0.7843753941798753,0.07828565196476468,0.4006015467997197,1.965548026174454,0.0,0.0
1.2024048096192383,0.07128502210924058,-0.7471467955934673,0.08564450343329016,0.36794257342627384,2.107015174715271,0.0,0.0
1.222444889779559,0.05713966864306236,-0.7072676733089108,0.09231477087517401,0.33351337209419185,2.790128192476213,0.0,0.0
1.2424849699398797,0.04405632533267078,-0.654167165519579,0.09794149853529753,0.281336383006176,2.8405427679620563,0.0,0.0
1.2625250501002003,0.032052937312113984,-0.6001694010278399,0.1025316802619797,0.2295090863341086,2.8358317692210657,0.0,0.0
1.282565130260521,0.02112626134969363,-0.5463337981210177,0.10611773395007591,0.1793026844048102,2.811152801936454,0.0,0.0
1.3026052104208417,0.011265573032813255,-0.4930344158440187,0.10873720672707758,0.1309736388500837,2.767364035706943,0.0,0.0
1.3226452905811623,0.002452993017267851,-0.4406290007772702,0.11043249551339417,0.0847644393158293,2.7057242234337813,0.0,0.0
1.342685370741483,-0.005336033779464857,-0.3894513398366354,0.11125037932276095,0.040894190468339565,2.6321874449781317,0.0,0.0
1.3627254509018036,-0.012130431242322891,-0.3397198731429017,0.11123886431580624,-0.0005757503477360551,2.5409669338906142,0.0,0.0
1.3827655310621243,-0.017965764163418583,-0.2917666460547846,0.11045086569066066,-0.039399931257278385,2.4407298112925684,0.0,0.0
1.4028056112224447,-0.022880877340017047,-0.24575565882992317,0.10893953197997777,-0.0755666855341447,2.3256094618852727,0.0,0.0
1.4228456913827654,-0.02692020160130314,-0.20196621306430473,0.10676201701544775,-0.10887574822650087,2.7975316030942747,0.0,0.0
1.442885771543086,-0.0298990818726887,-0.148944013569278,0.1036300580837461,-0.15659794658508258,2.494524679581195,0.0,0.0
1.4629258517034067,-0.03193471414631374,-0.10178161368125206,0.0996995714097605,-0.1965243336992802,2.2055615211392987,0.0,0.0
1.4829659318637274,-0.033138594945230394,-0.06019403994583249,0.09511332571716911,-0.2293122846295693,1.9253552410202643,0.0,0.0
1.503006012024048,-0.033618630754445995,-0.02400179046078004,0.09000496987811332,-0.25541779195278996,1.6760276139832342,0.0,0.0
1.5230460921843687,-0.03347055319953091,0.007403877745754281,0.0844870285922443,-0.27589706429345073,1.4161324812218585,0.0,0.0
1.5430861723446894,-0.03279411565727274,0.0338218771129087,0.07867575050405651,-0.2905639044093897,1.1099601205819756,0.0,0.0
1.56312625250501,-0.03170705718033213,0.05435292384703076,0.072712677478933,-0.298153651256176,0.7840932916333778,0.0,0.0
1.5831663326653307,-0.03033477788667517,0.06861396468284793,0.06675007732572211,-0.29813000766054437,0.45504120009303733,0.0,0.0
1.6032064128256511,-0.028803941824983487,0.07654180308458425,0.060942273979639146,-0.29039016730414796,0.17330542097369045,0.0,0.0
1.6232464929859718,-0.027222815995583953,0.0790562914699768,0.05541711816632176,-0.2762577906658691,-0.5481004044316731,0.0,0.0
1.6432865731462925,-0.025871291342799675,0.0675762326392139,0.05056110309664788,-0.24280075348369423,-0.3889421128137587,0.0,0.0
1.6633266533066131,-0.024685920872714047,0.059268523504281495,0.04625083233997587,-0.21551353783360028,-0.38585125056140496,0.0,0.0
1.6833667334669338,-0.023664290429178544,0.0510815221767751,0.04245744386774535,-0.18966942361152617,-0.36053041453228185,0.0,0.0
1.7034068136272544,-0.022795453686329386,0.043441837142457924,0.03914231526390701,-0.16575643019191716,-0.3260144133263155,0.0,0.0
1.723446893787575,-0.022065007971828327,0.03652228572505295,0.03626443896328141,-0.14389381503127996,-0.2867811010094333,0.0,0.0
1.7434869739478958,-0.02145683093822823,0.030408851680004824,0.03378278562664191,-0.12408266683197494,-0.23579850220562443,0.0,0.0
1.7635270541082164,-0.020950326029594568,0.02532524543168308,0.03165193920164351,-0.10654232124991973,-0.19087063077857208,0.0,0.0
1.783567134268537,-0.020527357249026185,0.02114843902841911,0.029832222078388503,-0.09098585616275037,-0.14355155142825018,0.0,0.0
1.8036072144288577,-0.020168942954878432,0.01792071470738759,0.028284511044340648,-0.07738555170239281,-0.07922459458005557,0.0,0.0
1.8236472945891782,-0.019849541641138283,0.015970065687007515,0.02696144642066816,-0.0661532311836244,0.08141439582421292,0.0,0.0
1.8436873747494988,-0.019506093687659355,0.017172397673946432,0.0257607625574223,-0.060034193162293054,0.10214293320963963,0.0,0.0
1.8637274549098195,-0.019130167385006384,0.018796315132648605,0.024662769683560827,-0.05489964369307357,0.11116211527926086,0.0,0.0
1.8837675350701402,-0.018717929288074073,0.02061190484661555,0.023655271508326865,-0.05037490876169817,0.11824311814725284,0.0,0.0
1.9038076152304608,-0.018266328030464563,0.02258006288047546,0.022727775134812653,-0.04637481867571062,0.12420344924976029,0.0,0.0
1.9238476953907815,-0.017772772358375457,0.02467778360445523,0.021870947037745673,-0.042841404853349044,0.133228131356075,0.0,0.0
1.9438877755511021,-0.017233495436187792,0.02696384610938327,0.021074106891426664,-0.039842007315950535,0.13949385867759445,0.0,0.0
1.9639278557114228,-0.016645824123420593,0.02938356563836001,0.020328565792874457,-0.037277054927610284,0.14442853331187902,0.0,0.0
1.9839679358717435,-0.01600761932184484,0.031910240078787726,0.019626736537170016,-0.035091462785222106,0.15116367111963477,0.0,0.0
2.004008016032064,-0.015316051851128562,0.034578373535813875,0.01896025440393287,-0.033324106661857394,0.15350783416691838,0.0,0.0
2.024048096192385,-0.014570016050991747,0.03730179000684078,0.01832354546983186,-0.03183544670505033,0.23040034762053468,0.0,0.0
2.0440881763527052,-0.013739324775738889,0.04153456376264289,0.01766762306666696,-0.032796120158245096,0.22800490280716948,0.0,0.0
2.064128256513026,-0.012824724728937663,0.04573000234006126,0.016989751087080434,-0.03389359897932633,0.2091863717424551,0.0,0.0
2.0841683366733466,-0.011833364900435944,0.04956799142508598,0.016296660494228742,-0.0346545296425845,0.19143648180001693,0.0,0.0
2.1042084168336674,-0.010771972943483994,0.05306959784759753,0.015594361535269732,-0.03511494794795052,0.17384476077174155,0.0,0.0
2.124248496993988,-0.009647212177236063,0.05623803831239653,0.014888714142037289,-0.035282369661622175,0.14224787775008774,0.0,0.0
2.1442885771543083,-0.008471210075768428,0.05880010507338174,0.014193748993323369,-0.03474825743569598,0.1259678297931201,0.0,0.0
2.164328657314629,-0.0072501202805718866,0.06105448975982705,0.013514605669661867,-0.033957166183075094,0.11910449779934941,0.0,0.0
2.1843687374749496,-0.0059864263849586105,0.06318469478066378,0.012851015772808063,-0.033179494842690185,0.1107325964275617,0.0,0.0
2.2044088176352705,-0.004683205116146589,0.06516106344060109,0.012203691438910348,-0.0323662166948857,0.1144731533555786,0.0,0.0
2.224448897795591,-0.0033388113200878353,0.06721968980293769,0.011566362590305324,-0.03186644243025124,0.46375128557556344,0.0,0.0
2.244488977955912,-0.0018167662439103312,0.0761022538088752,0.010730707295724139,-0.04178276472905928,0.3453396518519915,0.0,0.0
2.2645290581162323,-0.00016303695827339518,0.0826864642818468,0.009760716367001744,-0.048499546436119714,0.25401144140283405,0.0,0.0
2.284569138276553,0.0015870163854076963,0.08750266718405457,0.008703692730231973,-0.05285118183848856,0.15377158151067147,0.0,0.0
2.3046092184368736,0.003394580889992733,0.09037822522925183,0.007611604602030871,-0.05460440641005511,0.08731556739756932,0.0,0.0
2.3246492985971945,0.0052340368294821055,0.09197279697446863,0.006516438433891787,-0.05475830840695416,0.008795025322299227,0.0,0.0
2.344689378757515,0.007075057393934616,0.09205102822262551,0.005457219298055064,-0.05296095679183616,-0.0746174504161587,0.0,0.0
2.3647294589178354,0.008885396439606588,0.09051695228359859,0.004476061257106717,-0.04905790204741736,-0.09367308221655389,0.0,0.0
2.3847695390781563,0.010657899084666005,0.08862513225297088,0.0035779245125321726,-0.04490683722872721,-0.09977837084165479,0.0,0.0
2.4048096192384767,0.012390440229761017,0.08662705725475055,0.0027607172045769107,-0.040860365397763096,-0.10206924246691836,0.0,0.0
2.4248496993987976,0.014082360088577247,0.08459599294081147,0.002020626392574605,-0.03700454060011528,0.11573524961699512,0.0,0.0
2.444889779559118,0.01581886371470785,0.08682518130653023,0.0012255756911591716,-0.03975253507077167,0.1467603964548533,0.0,0.0
2.464929859719439,0.017612285809802453,0.08967110475473014,0.0003524025601963572,-0.04365865654814072,0.07249095667471644,0.0,0.0
2.4849699398797593,0.01943389476711867,0.09108044786581097,-0.0005609536200566666,-0.04566780901265119,-0.0033408360556878014,0.0,0.0
2.50501002004008,0.0212543608103532,0.09102330216172656,-0.0014758928471655516,-0.04574696135544425,-0.16374377611162147,0.0,0.0
2.5250501002004007,0.023011352758441694,0.08784959740442462,-0.002304353331257796,-0.04142302420461221,-0.15437737790890443,0.0,0.0
2.5450901803607215,0.024708763085981005,0.0848705163769656,-0.0030570385669385094,-0.03763426178403567,-0.1620033025579414,0.0,0.0
2.565130260521042,0.02634383171484129,0.08175343144301424,-0.003734234231317947,-0.03385978321897188,-0.16666094080820817,0.0,0.0
2.5851703406813624,0.027914935241580376,0.0785551763369544,-0.0043374863724377054,-0.03016260705598791,-0.14784406153261181,0.0,0.0
2.6052104208416833,0.029429589430728417,0.07573270945740206,-0.0048816066010319275,-0.027206011429711116,-0.17421088206034005,0.0,0.0
2.6252505010020037,0.030877661264807763,0.07240359170396725,-0.005354602672427973,-0.023649803569802244,0.04377971288749308,0.0,0.0
2.6452905811623246,0.032344351784603695,0.07333452598979674,-0.005886974175640647,-0.026618575160633685,0.012204269956395293,0.0,0.0
2.665330661322645,0.033817492016646085,0.0736570116021195,-0.006463607624076387,-0.028831672421787,-0.031846481251019756,0.0,0.0
2.685370741482966,0.03528005750657838,0.0731282744966149,-0.00706237120754973,-0.02993817917366716,-0.09177387973301378,0.0,0.0
2.7054108216432864,0.03670883470567805,0.07143885995498368,-0.007651985734371193,-0.029480726341073165,-0.14986796260524546,0.0,0.0
2.7254509018036073,0.038081322886975556,0.06862440906487503,-0.008202187076665443,-0.027510067114712464,-0.19055265256056172,0.0,0.0
2.7454909819639277,0.03938180363399503,0.06502403735097383,-0.008692646558696698,-0.02452297410156276,-0.17890526757947445,0.0,0.0
2.7655310621242486,0.04061496266060754,0.06165795133062531,-0.009133270540578803,-0.022031199094105246,-0.188859098616227,0.0,0.0
2.785571142284569,0.04177704207862433,0.05810397090083967,-0.009521015490000208,-0.019387247471070238,-0.19522423069141892,0.0,0.0
2.8056112224448895,0.04286566924028685,0.054431358083125825,-0.00985460362195317,-0.016679406597648095,-0.19882709241282415,0.0,0.0
2.8256513026052104,0.04387953387613669,0.05069323179249214,-0.010134031392120631,-0.013971388508373067,-0.05661065492892725,0.0,0.0
2.845691382765531,0.04487421225379273,0.049733918882802014,-0.010444249093734032,-0.015510885080670047,-0.04843117800081444,0.0,0.0
2.8657314629258517,0.045852985091778806,0.04893864189930402,-0.010791997398643494,-0.017387415245473156,-0.1019406937713851,0.0,0.0
2.885771543086172,0.0467950714081459,0.047104315818354704,-0.011148169573692761,-0.017808608752463345,-0.1531218398211786,0.0,0.0
2.905811623246493,0.04768060124927643,0.04427649205652653,-0.011485074229031647,-0.016845232766944277,-0.19751827993668528,0.0,0.0
2.9258517034068134,0.048492346714612715,0.04058727326681445,-0.011778867316646466,-0.014689654380740913,-0.20856134299201243,0.0,0.0
2.9458917835671343,0.04922608279599387,0.036686804069058,-0.012024942407646568,-0.012303754550005057,-0.21494630879842785,0.0,0.0
2.9659318637274548,0.04987938850064573,0.03266528523259279,-0.012221116801359616,-0.009808719685652417,-0.21817892609070816,0.0,0.0
2.9859719438877756,0.05045105864505572,0.028583507220499235,-0.012366736973554239,-0.007281008609731151,-0.21878608887364578,0.0,0.0
3.006012024048096,0.0509408980596958,0.024491970732004313,-0.012462366241372796,-0.004781463390927871,-0.21762366971479202,0.0,0.0
3.0260521042084165,0.05134938776923803,0.020424485477111315,-0.012509287686350654,-0.0023460722488929126,-0.1133439080133498,0.0,0.0
3.0460921843687374,0.05171723344572495,0.018392283824346056,-0.012568792680296969,-0.0029752496973157417,-0.12665536328341492,0.0,0.0
3.066132264529058,0.05203925772668876,0.01610121404819047,-0.01263347033207388,-0.0032338825888455235,-0.15124750901694134,0.0,0.0
3.0861723446893787,0.05230588276574739,0.013331251952931143,-0.012689344084357162,-0.0027936876141641345,-0.1639419117298894,0.0,0.0
