time,x,x_dot,theta,theta_dot,u,x_ref,theta_ref
0.0,-0.033604329580382064,-0.0531200952104167,-0.17295689672306958,0.04257164077642275,-8.490879917879242,0.0,0.0
0.02004008016032064,-0.037924452120282545,-0.21600612699502394,-0.16830608811355396,0.23254043047578105,-8.11208348277346,0.0,0.0
0.04008016032064128,-0.045356575688094626,-0.3716061783906039,-0.1600404705600945,0.4132808776729735,-6.577293320879658,0.0,0.0
0.06012024048096192,-0.05530609279847992,-0.49747585551926476,-0.1489857871221534,0.5527341718970536,-5.484030756484378,0.0,0.0
0.08016032064128256,-0.06735105483496799,-0.6022481018244031,-0.1356969513961969,0.6644417862978262,-4.332847677510424,0.0,0.0
0.1002004008016032,-0.08104734243798846,-0.6848143801510231,-0.12075038526672603,0.7473283064735432,-3.3409269876440417,0.0,0.0
0.12024048096192384,-0.0960130365725103,-0.7482847067260917,-0.10462260044296467,0.8063892411880682,-1.9052316980018567,0.0,0.0
0.1402805611222445,-0.11169318665201367,-0.7840075039751679,-0.08804333301769823,0.828963371263322,-0.8795224972180917,0.0,0.0
0.16032064128256512,-0.1276924416088993,-0.7999627478442827,-0.0715042633692059,0.8269534824246162,-0.9460221786503564,0.0,0.0
0.18036072144288576,-0.1440412558957418,-0.817440714342124,-0.054862345751339324,0.8320958808933289,-0.2921157530009745,0.0,0.0
0.2004008016032064,-0.1604890863312302,-0.8223915217744205,-0.03839444740325848,0.8233949174040421,0.1163619784195078,0.0,0.0
0.22044088176352705,-0.17688102862021715,-0.8195971144493461,-0.022235830080179358,0.807930866153956,0.6078831311498376,0.0,0.0
0.24048096192384769,-0.19302967952168426,-0.8074325450733549,-0.006572485984929793,0.7831672047624783,1.0000207173543227,0.0,0.0
0.2605210420841683,-0.2087862922998144,-0.7878306389065078,0.008464559124101467,0.751852255451563,1.2108646083127794,0.0,0.0
0.280561122244489,-0.22407272938861075,-0.7643218544398171,0.02284654638906912,0.7190993632483826,1.4769840627544897,0.0,0.0
0.3006012024048096,-0.23878914644642202,-0.7358208528905628,0.036508502771382026,0.6830978191156452,1.7621758665401204,0.0,0.0
0.32064128256513025,-0.2528281056189716,-0.7019479586274814,0.049370072026981036,0.6430784627799506,1.9312047813973061,0.0,0.0
0.3406813627254509,-0.2661273201847785,-0.6649607282903449,0.061414065484816864,0.6021996728917914,2.178228150329369,0.0,0.0
0.3607214428857715,-0.27859388773539745,-0.6233283775309452,0.07257288402308684,0.5579409269134986,2.4724005875011894,0.0,0.0
0.3807615230460922,-0.2901163117985567,-0.5761212031579603,0.08274618519244965,0.5086650584681403,2.6880805145955415,0.0,0.0
0.4008016032064128,-0.30061348165223034,-0.5248584926836841,0.09187351319391833,0.45636640007343354,2.8606827087030946,0.0,0.0
0.42084168336673344,-0.31002082289138755,-0.4703670619578609,0.09991312907134789,0.40198079387147784,1.860854870322873,0.0,0.0
0.4408817635270541,-0.31873065161134406,-0.43549143599782664,0.10749849023358819,0.3792680581120149,2.090578915574883,0.0,0.0
0.4609218436873747,-0.3266556176794278,-0.39624830340418793,0.11454456471092692,0.35230372386693604,2.3101539435952985,0.0,0.0
0.48096192384769537,-0.33371220042984934,-0.35282913752107725,0.12096903874962041,0.3212237019346747,2.4996671930295924,0.0,0.0
0.501002004008016,-0.3398284431439005,-0.30581213570255783,0.12670330630832183,0.2867133779350709,2.6767461602384226,0.0,0.0
0.5210420841683366,-0.3449370539809867,-0.25543054185431063,0.13168173807434352,0.24892158830108474,2.84060075131698,0.0,0.0
0.5410821643286573,-0.3489756884943768,-0.20193172566950637,0.1358416647858009,0.20799633557286876,2.978459466761877,0.0,0.0
0.561122244488978,-0.35189190138127424,-0.14581064434486976,0.13913030844358393,0.1644321828891514,3.0932511376250726,0.0,0.0
0.5811623246492986,-0.35364198108218176,-0.08750398504537625,0.14150267699609617,0.11861842762561255,3.179209059242394,0.0,0.0
0.6012024048096192,-0.3541931760854219,-0.027559750162006354,0.14292454837608112,0.07109356899924724,3.237626451996194,0.0,0.0
0.6212424849699398,-0.35352317433619035,0.03350008746157579,0.14337144966302612,0.022345064347250095,4.326849177190354,0.0,0.0
0.6412825651302605,-0.3512077128705114,0.1157730732839483,0.1422166252873149,-0.057741218785561176,4.169252463745407,0.0,0.0
0.6613226452905812,-0.3473078357807384,0.19499385448864676,0.1395435379104248,-0.13365436884450566,3.908354397214388,0.0,0.0
0.6813627254509018,-0.3419243483321423,0.26917437242980724,0.1354853883043132,-0.20290748030557965,3.635059914691844,0.0,0.0
0.7014028056112224,-0.33516245772415804,0.3380945303992123,0.1301735843090808,-0.2655901997616206,3.341901449841811,0.0,0.0
0.721442885771543,-0.32713474347554067,0.40138571243086907,0.12374306934373382,-0.3215257482673489,3.0371943338663914,0.0,0.0
0.7414829659318637,-0.31795797623680055,0.45883836193700656,0.11632852287473038,-0.37072732345017223,2.7590140525146,0.0,0.0
0.7615230460921844,-0.3077383298958979,0.5109823170451336,0.1080432445101861,-0.41426391822721387,2.411837220718823,0.0,0.0
0.781563126252505,-0.29660866322660717,0.5564833334645366,0.09903540573796335,-0.45039193861113763,2.116222984438889,0.0,0.0
0.8016032064128256,-0.28468157183936765,0.5963545693619765,0.08941904802235977,-0.4808178857801791,1.860583386754072,0.0,0.0
0.8216432865731462,-0.2720539324010428,0.6313819719162429,0.07928147586258759,-0.5068786079886087,1.7878583647483821,0.0,0.0
0.8416833667334669,-0.25875116654872143,0.6651382926160699,0.0686004216184714,-0.5340527122058096,1.240725836067723,0.0,0.0
0.8617234468937875,-0.2449836171532319,0.6883774697744774,0.05762706873819211,-0.5486676440139644,1.000937960411231,0.0,0.0
0.8817635270541082,-0.23084170969130738,0.7070953730962256,0.04643190917807136,-0.5597579780060378,0.7363914119564511,0.0,0.0
0.9018036072144289,-0.21642549254218316,0.7208108574562114,0.03509873634355226,-0.5666586417259546,0.4888193520981786,0.0,0.0
0.9218436873747494,-0.20182837411206525,0.7298559215058951,0.023700757414505644,-0.5698989464523309,0.20752341616599557,0.0,0.0
0.9418837675350701,-0.18715691848150398,0.733572781528063,0.012330633998381645,-0.5685061708061999,0.07034973094109218,0.0,0.0
0.9619238476953907,-0.1724614671211726,0.7347725680165687,0.000996999209105759,-0.5666817394637943,-0.2078294640903173,0.0,0.0
0.9819639278557114,-0.157847395759346,0.7307035680913301,-0.010208783196443699,-0.5602891202774729,-0.329845798459961,0.0,0.0
1.002004008016032,-0.1433591743839967,0.7244110687674651,-0.021285907473043965,-0.5538562138300133,-0.6220829982521523,0.0,0.0
1.0220440881763526,-0.12910772607285464,0.7125724155571029,-0.032133247909416365,-0.54236702181862,-0.8175231036744285,0.0,0.0
1.0420841683366733,-0.11516625334957856,0.6970736361638045,-0.0427049482502696,-0.528585017042662,-1.0545934181096022,0.0,0.0
1.062124248496994,-0.10162426402271471,0.6770994663431926,-0.052929215744926324,-0.5112133747328359,-1.3149062594714,0.0,0.0
1.0821643286573146,-0.08858041005784342,0.6521926982435645,-0.06271867684489253,-0.48947305499831056,-1.5580078900575995,0.0,0.0
1.1022044088176353,-0.07612672446124033,0.6226842798301546,-0.07199349169418374,-0.4637407424645609,-1.7751120981742605,0.0,0.0
1.122244488977956,-0.06434521662367619,0.5890753918782068,-0.08068597183245237,-0.43462400691343095,-1.980190822488685,0.0,0.0
1.1422845691382766,-0.053313344500700466,0.5515936061487864,-0.08873197958591528,-0.4023003876731456,-2.1788051768246843,0.0,0.0
1.1623246492985972,-0.04310620464222589,0.5103569929237288,-0.09606725967868363,-0.3667640046384173,-2.3622813751877065,0.0,0.0
1.1823647294589177,-0.03379317146104571,0.46565165905900896,-0.10263205230299477,-0.3282396312155573,-2.53228542694083,0.0,0.0
1.2024048096192383,-0.025438569827245947,0.41773008168998815,-0.10836969713085993,-0.2868822413932581,-2.681392329860531,0.0,0.0
1.222444889779559,-0.018098802849754233,0.3669883488745857,-0.11323053520333029,-0.24304190362351796,-2.958205011911758,0.0,0.0
1.2424849699398797,-0.011880308733831512,0.31092470579613607,-0.11708523706033812,-0.19273509285039137,-3.078881374560798,0.0,0.0
1.2625250501002003,-0.006828939364478848,0.2525684684676332,-0.11988878436795683,-0.14017736538093561,-3.1688353613531923,0.0,0.0
1.282565130260521,-0.00297888524613701,0.1925027059170919,-0.12160723017983238,-0.08592229059377793,-3.1919549863648884,0.0,0.0
1.3026052104208417,-0.00033861638752657975,0.13201344293052153,-0.12223836857584026,-0.031556919800394406,-3.1031490249942673,0.0,0.0
1.3226452905811623,0.001126687896560948,0.07326521420437639,-0.12183782891626879,0.02002698297857374,-3.0297120710156356,0.0,0.0
1.342685370741483,0.00144553552408012,0.015942381375958603,-0.12044560749093927,0.06961107126647603,-2.9053801885147754,0.0,0.0
1.3627254509018036,0.0006659675044664419,-0.038978400980683905,-0.11812478872123584,0.11604093848517114,-2.8089239944009954,0.0,0.0
1.3827655310621243,-0.001175123950087177,-0.09205457272768094,-0.11491629523166878,0.1604246744783532,-2.677934769655553,0.0,0.0
1.4028056112224447,-0.0040276505234952825,-0.14262632867040526,-0.11087539746276207,0.20204488844533575,-2.527051101212304,0.0,0.0
1.4228456913827654,-0.007834011369039466,-0.19031804227720917,-0.1060636278295266,0.2405884816617737,-3.963651184300547,0.0,0.0
1.442885771543086,-0.013155795627879975,-0.2660892129420255,-0.0996150054269928,0.3224311201266902,-3.4735172449873803,0.0,0.0
1.4629258517034067,-0.019803914555898493,-0.3324059464009259,-0.09177238316110779,0.3921311132942504,-2.811959279664718,0.0,0.0
1.4829659318637274,-0.0275227927628151,-0.38594391034583037,-0.08286990769491771,0.44512377330950387,-2.166248061102626,0.0,0.0
1.503006012024048,-0.036063260825556796,-0.42702340313708476,-0.07322645731427387,0.48217251903219216,-1.6161707792807145,0.0,0.0
1.5230460921843687,-0.04521357957991501,-0.45751593771791066,-0.06310117039156715,0.5062643461353357,-1.0875714076988614,0.0,0.0
1.5430861723446894,-0.05477045502640969,-0.47784377232473396,-0.05273819939050123,0.5181485500532963,-0.566921877757224,0.0,0.0
1.56312625250501,-0.06453370366333662,-0.48816243184634633,-0.042376055363563946,0.518107201346864,-0.5695849699134726,0.0,0.0
1.5831663326653307,-0.07450728147138766,-0.4986788904025519,-0.03194783874193305,0.5214108310815446,0.4252090471151416,0.0,0.0
1.6032064128256511,-0.08430596290954834,-0.48993407190803356,-0.021969373046893892,0.4989232847519578,2.416221893655127,0.0,0.0
1.6232464929859718,-0.09315561655089834,-0.44248268206750013,-0.013542305420756247,0.42135338130688227,1.108199337932415,0.0,0.0
1.6432865731462925,-0.10156899343020184,-0.42066884396517523,-0.005848760800799259,0.3846772309978494,1.2285975302325427,0.0,0.0
1.6633266533066131,-0.10950128118308315,-0.3966143876440652,0.0010892441671593199,0.34690024839792893,1.2535167023476537,0.0,0.0
1.6833667334669338,-0.1169447237445104,-0.3721721280713625,0.00730084054273725,0.3105798187788965,1.284427626493527,0.0,0.0
1.7034068136272544,-0.12388902998542688,-0.34721531204582423,0.012807121774274548,0.27531406157686494,1.2911669636676302,0.0,0.0
1.723446893787575,-0.1303331468714628,-0.3222058443017957,0.0176389058824422,0.24158920540838247,1.2809420789520454,0.0,0.0
1.7434869739478958,-0.13628245285160157,-0.29746529900693763,0.021832699224680598,0.20968966711192,1.2602370749972958,0.0,0.0
1.7635270541082164,-0.14174623573566617,-0.2731891442032301,0.025427122169851178,0.17972114725852903,1.2350551420395803,0.0,0.0
1.783567134268537,-0.14673535953375638,-0.2494561899045103,0.028459633200708368,0.15162555154285948,1.198105114881937,0.0,0.0
1.8036072144288577,-0.15126511909810633,-0.22648797821749728,0.03097102266414789,0.1255694731719761,1.158128152857607,0.0,0.0
1.8236472945891782,-0.15535184017041,-0.20433605361518445,0.03300055474948085,0.10147660426664794,0.7314101204453958,0.0,0.0
1.8436873747494988,-0.15916261359885267,-0.1905386714221332,0.03481053599946475,0.09049906249919533,0.9350653943168217,0.0,0.0
1.8637274549098195,-0.16261849593605718,-0.17279411686022536,0.036293352209214425,0.07414081048748354,0.6363958175773594,0.0,0.0
1.8837675350701402,-0.16583645293531288,-0.16089784996278444,0.03763296300171212,0.06698053962488498,0.9999869208306059,0.0,0.0
1.9038076152304608,-0.16867500176752134,-0.14192744161042306,0.03862531112977482,0.049617406403134785,0.6054526794779376,0.0,0.0
1.9238476953907815,-0.17128837031471728,-0.1306684273597972,0.03950727011503629,0.04409794926307361,0.9390614567523331,0.0,0.0
1.9438877755511021,-0.1735466440755551,-0.11291368804189073,0.04008943224254514,0.029108106375442554,0.5942273467941583,0.0,0.0
1.9639278557114228,-0.1755845388645412,-0.10189473944930497,0.04057701335349333,0.024379055547409368,0.8914685804403287,0.0,0.0
1.9839679358717435,-0.17728621747194964,-0.08508393037042208,0.040799378448864,0.011118254768533549,0.6217056500338201,0.0,0.0
2.004008016032064,-0.1787569999567379,-0.07353912423941295,0.04091558772301141,0.005810463707370726,0.6610781471998721,0.0,0.0
2.024048096192385,-0.17998155744985428,-0.061227874655817985,0.04090336542266021,-0.0006111150175599116,0.16551409534036593,0.0,0.0
2.0440881763527052,-0.18115324483803832,-0.05858436940920194,0.0410522483352222,0.007444145628099264,0.26062784230897873,0.0,0.0
2.064128256513026,-0.1822349933584219,-0.05408742601917759,0.04130758949811879,0.01276705814482957,0.3436316588350254,0.0,0.0
2.0841683366733466,-0.18319448978077715,-0.04797482111776362,0.04162249127494311,0.015745088841216087,0.45845907410199693,0.0,0.0
2.1042084168336674,-0.1839870212307802,-0.039626572500152515,0.041931835565771625,0.015467214541425862,0.6632967089419916,0.0,0.0
2.124248496993988,-0.1845327536627262,-0.02728662159730008,0.0421178707523147,0.009301759327153733,0.5658009959399564,0.0,0.0
2.1442885771543083,-0.1848697810497871,-0.016851369353045008,0.042238746591105,0.006043791939514857,0.6295597023600574,0.0,0.0
2.164328657314629,-0.18497326104229936,-0.005173999625612923,0.04225796731711384,0.0009610363004422581,0.6481609070089023,0.0,0.0
2.1843687374749496,-0.1848359414584634,0.006865979191797818,0.04216478428836967,-0.004659151437208539,0.6394419189372738,0.0,0.0
2.2044088176352705,-0.18446119746617406,0.018737199614467542,0.04196370409185317,-0.010054009825825033,0.6539375759281226,0.0,0.0
2.224448897795591,-0.18384331542607418,0.030894102004994532,0.041644985584622936,-0.015935925361511796,0.45814092742516266,0.0,0.0
2.244488977955912,-0.18305859898938276,0.03923582183457165,0.041321037466702785,-0.016197405896007638,0.4360835211216373,0.0,0.0
2.2645290581162323,-0.18211556159994047,0.04715186947211398,0.041002705686395614,-0.015916589015358664,0.48707736312966177,0.0,0.0
2.284569138276553,-0.18099421535625906,0.056067312184069684,0.040658180156047205,-0.017226276517420442,0.5157208082012655,0.0,0.0
2.3046092184368736,-0.1796832853776988,0.06554649892801433,0.04026854646995102,-0.01948168430480921,0.6226275585154178,0.0,0.0
2.3246492985971945,-0.17814094700263008,0.07711691875343521,0.03976886542857715,-0.024984052068693096,0.6255918519417438,0.0,0.0
2.344689378757515,-0.17636590000610722,0.08875234982614266,0.039154248580552956,-0.030730842401209962,0.6052716546925402,0.0,0.0
2.3647294589178354,-0.17436589630511354,0.1000001850496843,0.03843269029551069,-0.03607791425211308,0.6012800252098466,0.0,0.0
2.3847695390781563,-0.17214228601420248,0.11118051454555233,0.03760196662625427,-0.04153618346282115,0.5604571549662938,0.0,0.0
2.4048096192384767,-0.16971075891058446,0.12157635518090078,0.036680692252610156,-0.04606371868220574,0.5243002643749674,0.0,0.0
2.4248496993987976,-0.16708515835881935,0.13128002758825552,0.035684184653888,-0.049825379936107674,0.4852226322705076,0.0,0.0
2.444889779559118,-0.16428044595648567,0.14023562011668403,0.03462899547121757,-0.052759459133521557,0.44170169527089376,0.0,0.0
2.464929859719439,-0.1613133004137877,0.14835727713489866,0.03353390539022011,-0.05475450404987294,0.4275284805843126,0.0,0.0
2.4849699398797593,-0.15818893792867464,0.1562181242556533,0.03240028896799026,-0.05668082111149244,0.41275491767182776,0.0,0.0
2.50501002004008,-0.15491279795477106,0.16380699869517842,0.03122962932173003,-0.05853298231301133,0.39967302783237396,0.0,0.0
2.5250501002004007,-0.15148964928848985,0.17115743331406125,0.03002218752215146,-0.06037208997892858,0.3808265244263703,0.0,0.0
2.5450901803607215,-0.14792649957473247,0.1781574856878691,0.028781363593695763,-0.06204119642278479,0.3630507807882173,0.0,0.0
2.565130260521042,-0.14422992914930421,0.18482852127141242,0.027509721798354293,-0.06358208976707347,0.3326891388466547,0.0,0.0
2.5851703406813624,-0.1404114206525241,0.19092542483900538,0.026216992044638916,-0.06463648768576885,0.32594782327042915,0.0,0.0
2.6052104208416833,-0.13647323401229333,0.19690933201153799,0.024898960833950094,-0.06590156053444113,0.298352005864976,0.0,0.0
2.6252505010020037,-0.1324257594999076,0.2023737256192871,0.023563450314992424,-0.06677552594788345,0.38518510038985526,0.0,0.0
2.6452905811623246,-0.12823473115489226,0.2095514172507669,0.022151257017366803,-0.07060966488128098,0.38862094864099483,0.0,0.0
2.665330661322645,-0.12389840313624852,0.216816400932187,0.020651461170008698,-0.07498979236790519,0.29878235466279773,0.0,0.0
2.685370741482966,-0.11945140142956055,0.22235008533439835,0.01910713997850812,-0.07721605957502892,0.24040542808708415,0.0,0.0
2.7054108216432864,-0.1149160628738414,0.22676692778595742,0.01754269342579773,-0.07822232763551969,0.08432949089621988,0.0,0.0
2.7254509018036073,-0.11035284263926205,0.22816101172896722,0.016039538229596133,-0.07515775981007984,0.15473796613575297,0.0,0.0
2.7454909819639277,-0.10573383563509145,0.2309503502085303,0.014547015438516279,-0.07462613955399269,0.034943961744832594,0.0,0.0
2.7655310621242486,-0.10110536027682461,0.231423767913342,0.013125780498099572,-0.07106174702083533,0.12902196003032562,0.0,0.0
2.785571142284569,-0.0964302983824483,0.2337530947188149,0.011711844584386505,-0.07069679568565332,0.018208935990430677,0.0,0.0
2.8056112224448895,-0.09175148652325563,0.2339405929596338,0.010361108681031902,-0.06753679516773019,0.08864345101551796,0.0,0.0
2.8256513026052104,-0.08704105266955964,0.23552169268479978,0.009023856133833276,-0.06686262735993125,0.37826624411692306,0.0,0.0
2.845691382765531,-0.08218559597392087,0.24277283478193806,0.007522240461472615,-0.07508078361803305,0.3769971093435953,0.0,0.0
2.8657314629258517,-0.07718518102230434,0.2500207475808264,0.005847532096586838,-0.08373541824428883,0.22241414168649498,0.0,0.0
2.885771543086172,-0.07209964976849599,0.25427656269041793,0.00407959302320539,-0.08839695366907238,0.07543279761601895,0.0,0.0
2.905811623246493,-0.0669858514324834,0.25568991680062964,0.0022932531203114677,-0.08931699514469613,0.006914132150398419,0.0,0.0
2.9258517034068134,-0.06187001199462191,0.2557919718930744,0.0005173293791221627,-0.08879618705946525,-0.014430836080504612,0.0,0.0
2.9458917835671343,-0.05675995205120114,0.25550299717103836,-0.001246890539841471,-0.08821099594818169,-0.08360522491692796,0.0,0.0
2.9659318637274548,-0.05168215982698187,0.2538896112109635,-0.0029700662847119553,-0.08615878724352422,-0.07725401293769092,0.0,0.0
2.9859719438877756,-0.04663366321782558,0.2524248304578144,-0.004666779304088464,-0.08483565096882542,-0.13693078440734247,0.0,0.0
3.006012024048096,-0.0416372634903522,0.2498199863736692,-0.006312820084748981,-0.08230203903302584,-0.19361714032121646,0.0,0.0
3.0260521042084165,-0.036714609397827044,0.2461327046262575,-0.007885409659703692,-0.07862947874773554,0.09269739989448778,0.0,0.0
3.0460921843687374,-0.03175352333281548,0.2480543032505781,-0.00956194616259588,-0.0838268251446094,-0.05677324314546989,0.0,0.0
3.066132264529058,-0.026811852207794203,0.247083556251064,-0.011265568045141635,-0.08518109412728778,-0.13589307336757928,0.0,0.0
3.0861723446893787,-0.02191998237958759,0.2445934914103306,-0.012960738144066846,-0.08475850494626058,-0.22405344318125242,0.0,0.0
3.106212424849699,-0.017111830222675463,0.24040760784560647,-0.014606580119890309,-0.08229209879117311,-0.22877466152762235,0.0,0.0
