time,x,x_dot,theta,theta_dot,u,x_ref,theta_ref
0.0,0.4372806674313261,0.04955466080303583,0.11227895373518892,-0.042428934144293454,7.943501055437171,0.0,0.0
0.02004008016032064,0.4413367987209589,0.20280656448163914,0.10752302328211247,-0.237796522653823,6.089998545330013,0.0,0.0
0.04008016032064128,0.44773696755225767,0.32000844156494024,0.09990414904589277,-0.38094371181098463,5.304555613578971,0.0,0.0
0.06012024048096192,0.4561774644845774,0.4220248466159871,0.08982803857074284,-0.503805523757497,4.455377309636212,0.0,0.0
0.08016032064128256,0.4663303926310811,0.5076464073251854,0.07772238489663193,-0.6052826837055459,3.8983128223261305,0.0,0.0
0.1002004008016032,0.4779822498211565,0.5825928595037693,0.06383278786629523,-0.6944798515168346,3.0046505983147487,0.0,0.0
0.12024048096192384,0.49078860959258275,0.640317988571312,0.048590891028946454,-0.7620948418674388,2.6455298639397595,0.0,0.0
0.1402805611222445,0.5046137927007481,0.6912591554082693,0.03210894002422618,-0.8240975502360136,1.7330302374855204,0.0,0.0
0.16032064128256512,0.5191064271953091,0.7246317247280467,0.01481560323776324,-0.8646668393231469,0.8835438430455775,0.0,0.0
0.18036072144288576,0.5339398080982206,0.7416690451455756,-0.0029014197024334713,-0.8858511470098355,-0.42028414649771384,0.0,0.0
0.2004008016032064,0.54860997049732,0.7335081199549651,-0.020390818506419203,-0.8744699401992866,-1.1304228657504838,0.0,0.0
0.22044088176352705,0.5628445645955069,0.7117297049093455,-0.03734722350703671,-0.8478202500308754,-1.5877170740948487,0.0,0.0
0.24048096192384769,0.5764698237036202,0.6812629554056634,-0.05361024737106098,-0.8131511932012134,-2.2719350795806843,0.0,0.0
0.2605210420841683,0.5892233434964975,0.6376759896438629,-0.06888323693491227,-0.7636494781925647,-2.5581895948818674,0.0,0.0
0.280561122244489,0.600997829105152,0.5887242804327214,-0.08309653341985966,-0.7106648242473694,-2.9431288082672196,0.0,0.0
0.3006012024048096,0.6116472870111999,0.5324728953023934,-0.09611690234656113,-0.6510184463350732,-3.2686823652612875,0.0,0.0
0.32064128256513025,0.6210486480738346,0.4700680531317418,-0.1078388762929345,-0.5860986973186683,-3.5327315033984057,0.0,0.0
0.3406813627254509,0.6291025367499996,0.40269443380824865,-0.11818510696334843,-0.5173115335206964,-3.7270402661012008,0.0,0.0
0.3607214428857715,0.6357364267199422,0.3316944984971333,-0.12711039776026714,-0.44626453984593517,-3.8776300207279917,0.0,0.0
0.3807615230460922,0.6408944494140107,0.2579011347034282,-0.13458605195833448,-0.37378270990336626,-3.9797329669787285,0.0,0.0
0.4008016032064128,0.6445392161799856,0.18223833829874198,-0.140602240174804,-0.30080941082347545,-4.024616691105459,0.0,0.0
0.42084168336673344,0.6466551933393619,0.10579885796882221,-0.1451727970438932,-0.2285278434544602,-1.358747379903618,0.0,0.0
0.4408817635270541,0.6482825818126805,0.08136942366592559,-0.14986872263942203,-0.23479627977644224,-1.6797585281114844,0.0,0.0
0.4609218436873747,0.6492976398425253,0.05075290149223852,-0.1545344001481789,-0.2332838754378444,-1.9489506163658739,0.0,0.0
0.48096192384769537,0.6495968366571278,0.014959840730124255,-0.15904422927064019,-0.2254914561230638,-2.2333604936889735,0.0,0.0
0.501002004008016,0.6490706976711789,-0.026306949297445648,-0.16326310373251635,-0.21094372309380857,-2.502515561572101,0.0,0.0
0.5210420841683366,0.6476156353356337,-0.0727531167772587,-0.16706311199037385,-0.19000041289287511,-2.732002638354524,0.0,0.0
0.5410821643286573,0.645143414258123,-0.1236110538755329,-0.17033672137895245,-0.16368046942892991,-2.948129870038709,0.0,0.0
0.561122244488978,0.6415708652569287,-0.17862745005971298,-0.17298086217818084,-0.13220703996141964,-3.127447721017913,0.0,0.0
0.5811623246492986,0.6368289785264192,-0.237094336525477,-0.1749096826876374,-0.09644102547282812,-3.280472090252348,0.0,0.0
0.6012024048096192,0.6308587736639238,-0.298510243124767,-0.17604786507651882,-0.05690911944407095,-3.409682166646742,0.0,0.0
0.6212424849699398,0.6236103035740396,-0.3624235044942147,-0.17632864427867345,-0.014038960107732396,-4.151970594059075,0.0,0.0
0.6412825651302605,0.6147946530141132,-0.44078252799632145,-0.17532735236545036,0.05006459566115509,-4.079750548219664,0.0,0.0
0.6613226452905812,0.6044396254486754,-0.5177513782718886,-0.1730788248419984,0.11242637617259699,-3.997208311101643,0.0,0.0
0.6813627254509018,0.5925766367438444,-0.5931494352415442,-0.169615540014038,0.17316424139801967,-3.8725839848405204,0.0,0.0
0.7014028056112224,0.5792531001808442,-0.666176828150013,-0.16498616517367998,0.23146874201790177,-3.715196936904861,0.0,0.0
0.721442885771543,0.5645288256752381,-0.736213725280306,-0.15925062994498076,0.2867767614349611,-3.551452098803542,0.0,0.0
0.7414829659318637,0.5484657685395256,-0.8031528567856264,-0.15246542823033532,0.3392600857322727,-3.4021201929033733,0.0,0.0
0.7615230460921844,0.5311199659923717,-0.867290127357696,-0.1446720864100999,0.38966709101177094,-3.204318988017598,0.0,0.0
0.781563126252505,0.5125660557732513,-0.9276955109560197,-0.13593381243541927,0.43691369873403146,-2.9918972521492457,0.0,0.0
0.8016032064128256,0.49288412471967696,-0.984096552678717,-0.1263164967719798,0.48086578317197215,-2.796224477047818,0.0,0.0
0.8216432865731462,0.4721475126576973,-1.0368306030989844,-0.11587104905823002,0.5222723856874898,-3.5903408752357464,0.0,0.0
0.8416833667334669,0.45004349358717255,-1.105200953526235,-0.10406889079375299,0.5901079132238517,-2.931741173859406,0.0,0.0
0.8617234468937875,0.4268252211943457,-1.1609136196413423,-0.09121587308609695,0.642650885382802,-2.38559755506594,0.0,0.0
0.8817635270541082,0.4027018426303794,-1.2061689281983154,-0.07754695610932182,0.6834458488387567,-1.8766047497256513,0.0,0.0
0.9018036072144289,0.37786790858512076,-1.2416967022629306,-0.06327130745745525,0.7137824325933281,-1.4746475067452731,0.0,0.0
0.9218436873747494,0.35247615070544014,-1.2695878939840324,-0.048532673807580806,0.7369316824937223,-1.0054412225779061,0.0,0.0
0.9418837675350701,0.3267054840374832,-1.288533333397847,-0.0335117827285609,0.7510445539509951,-0.41134749718765196,0.0,0.0
0.9619238476953907,0.3007835410466399,-1.2960971495421638,-0.01846113556996854,0.752532357929618,-0.01703318448348573,0.0,0.0
0.9819639278557114,0.27486003777265827,-1.2961751636990826,-0.003516627359926505,0.7472254105021018,0.21368278609816135,0.0,0.0
1.002004008016032,0.249020888692787,-1.291957453993564,0.011280764562756791,0.7398695961341648,0.4438654299592769,0.0,0.0
1.0220440881763526,0.22335183316436072,-1.283452776421313,0.025889479803858126,0.7304357620550668,1.1776287697262315,0.0,0.0
1.0420841683366733,0.1981351488255311,-1.260834216941481,0.03997240740768004,0.7041463801910957,1.5059498532405478,0.0,0.0
1.062124248496994,0.17349499927851225,-1.2320074773509426,0.05342659175419256,0.672709217325626,1.8234468377797104,0.0,0.0
1.0821643286573146,0.1495514475637717,-1.1971775857370277,0.06615182479912773,0.6362616522467588,1.9665452672911068,0.0,0.0
1.1022044088176353,0.12635666967199954,-1.1597388945886071,0.07814550004572891,0.5996837623300592,2.1818768798589607,0.0,0.0
1.122244488977956,0.10399118691100184,-1.1182741380498846,0.08935854477678536,0.5606522365528224,2.37796228628093,0.0,0.0
1.1422845691382766,0.08252819145741103,-1.073149772679541,0.09974850338624182,0.5194979304728229,2.5697139959440984,0.0,0.0
1.1623246492985972,0.062039381013293766,-1.024440522205863,0.10927053964955291,0.4761018131655548,2.7365697489643233,0.0,0.0
1.1823647294589177,0.04258696021816692,-0.9726210397563421,0.1178890607486763,0.43092605495616965,2.8791948558797995,0.0,0.0
1.2024048096192383,0.024223921357491428,-0.9181519430337747,0.12557701559789924,0.3843977424611471,3.005878294192049,0.0,0.0
1.222444889779559,0.006997294338657648,-0.861331350941689,0.13231082562004778,0.33669050110742677,4.007476329526606,0.0,0.0
1.2424849699398797,-0.008704643628075912,-0.785096898336678,0.1375542426663442,0.2621708523148203,3.943994140311108,0.0,0.0
1.2625250501002003,-0.022908340891062542,-0.7101848631493316,0.14137868408913318,0.19122207113944895,3.8263108345058425,0.0,0.0
1.282565130260521,-0.03566090472400074,-0.6376281916469101,0.14387751161127543,0.1249413761071127,3.683848605326995,0.0,0.0
1.3026052104208417,-0.047018661714022275,-0.5678878495010768,0.14514959738511166,0.06360428869181173,3.526506125585334,0.0,0.0
1.3226452905811623,-0.05704333531105009,-0.5012336798513909,0.1452942760770727,0.007233934598052341,3.3581178336684574,0.0,0.0
1.342685370741483,-0.06580058940781613,-0.4378627048383026,0.14440982790579895,-0.044222408563687865,3.177773872718579,0.0,0.0
1.3627254509018036,-0.07336042121085239,-0.3779915901518125,0.14259470544603253,-0.09075612298832089,2.9858544089823758,0.0,0.0
1.3827655310621243,-0.0797970517555234,-0.32183152723355113,0.1399480189012227,-0.13233432724049227,2.787876931724139,0.0,0.0
1.4028056112224447,-0.08518681442279707,-0.26948813336368377,0.13656705277033518,-0.16904830654437553,2.5825582525077784,0.0,0.0
1.4228456913827654,-0.08960869167019823,-0.2210938623700579,0.13254869504017444,-0.20091788650803702,2.4750833394239566,0.0,0.0
1.442885771543086,-0.09310335691650712,-0.17473326231544434,0.12792920102807695,-0.23097470060487504,2.1954371180721663,0.0,0.0
1.4629258517034067,-0.0957784185182509,-0.13375308008718947,0.12284081462538615,-0.25441932013454016,1.9438345666561978,0.0,0.0
1.4829659318637274,-0.09773044181624647,-0.09760116489977821,0.11739675447334341,-0.272203007602137,1.6690280693539452,0.0,0.0
1.503006012024048,-0.09906495889878696,-0.06672585412702381,0.11172166332319515,-0.2837545575074131,1.3952410169690816,0.0,0.0
1.5230460921843687,-0.09988706489999032,-0.04110530006016793,0.10593837266391573,-0.289164532963971,1.1223090923659225,0.0,0.0
1.5430861723446894,-0.10030151658582889,-0.020722584291928605,0.10016877320009288,-0.2884799731911426,0.9322249088566891,0.0,0.0
1.56312625250501,-0.10038079292931841,-0.003963817174476119,0.09448688401316133,-0.2840944593465774,0.7573749265549506,0.0,0.0
1.5831663326653307,-0.10019147061418089,0.009466115756876193,0.08895855457713844,-0.2764164718011443,0.5768415103920423,0.0,0.0
1.6032064128256511,-0.09980239704633267,0.019453678392411057,0.08365402983871599,-0.26522623692112246,0.3297317043167859,0.0,0.0
1.6232464929859718,-0.09930845905427034,0.024696899603116756,0.07868386174459628,-0.2485084047059855,-0.37905704199110934,0.0,0.0
1.6432865731462925,-0.09898472812719214,0.016186546353910293,0.07442995051606108,-0.21269556142676016,-0.23743442238998533,0.0,0.0
1.6633266533066131,-0.0987747943254864,0.010496690085286926,0.07078312709162662,-0.18234117122172266,-0.094212989586867,0.0,0.0
1.6833667334669338,-0.0986217795534138,0.007650738603630559,0.06763701279968724,-0.15730571459696874,0.053364409510250066,0.0,0.0
1.7034068136272544,-0.09846723667435123,0.0077271439531285116,0.06488576726495233,-0.13756227673674576,0.12030457364018445,0.0,0.0
1.723446893787575,-0.09828427911368384,0.009147878033369236,0.0624730384780131,-0.12063643934696167,0.19003960602616313,0.0,0.0
1.7434869739478958,-0.09804502199185597,0.011962856091393382,0.0603429510073306,-0.10650437353412506,0.26068024396347966,0.0,0.0
1.7635270541082164,-0.09772130432344146,0.016185883420725224,0.05844086206609912,-0.09510444706157373,0.31784292166822253,0.0,0.0
1.783567134268537,-0.097290285719433,0.02155093020042264,0.0567214190401578,-0.08597215129706583,0.3546283938417839,0.0,0.0
1.8036072144288577,-0.09673712600786162,0.02765798557856909,0.05515230817309782,-0.07845554335299919,0.38934424812678076,0.0,0.0
1.8236472945891782,-0.09604783430339715,0.0344645852232235,0.05370336588625836,-0.07244711434197293,0.7813404204679393,0.0,0.0
1.8436873747494988,-0.09506906248341186,0.04893859099926428,0.05213652714530932,-0.07834193704745183,0.7128376398740601,0.0,0.0
1.8637274549098195,-0.09382708605290381,0.06209882152540249,0.05048189673679837,-0.0827315204255475,0.6292855951630784,0.0,0.0
1.8837675350701402,-0.09235402767345939,0.07365291897222077,0.04877782337635154,-0.08520366802234157,0.5842268486755532,0.0,0.0
1.9038076152304608,-0.09066697840439633,0.08435246345315264,0.04703986652069824,-0.08689784278266471,0.5408658863829748,0.0,0.0
1.9238476953907815,-0.08878235766805187,0.09423103681722299,0.0452823849094513,-0.08787408056234715,0.5418932175804239,0.0,0.0
1.9438877755511021,-0.08669926086212273,0.1041548402964571,0.043493683323054526,-0.08943507931983888,0.4994928799944528,0.0,0.0
1.9639278557114228,-0.0844337185317353,0.11327711651937176,0.041687245577566936,-0.0903218872743796,0.45710700239925733,0.0,0.0
1.9839679358717435,-0.08200175090413679,0.1215983813799252,0.03987643951263385,-0.09054030324665441,0.42027919872556185,0.0,0.0
2.004008016032064,-0.0794172086824285,0.12922711108541463,0.038071361241392744,-0.09025391356205537,0.3900212892636085,0.0,0.0
2.024048096192385,-0.07669138102361069,0.1362913829408913,0.03627830639858857,-0.08965274214020863,0.41125300122808545,0.0,0.0
2.0440881763527052,-0.07381547005612357,0.1437955483743559,0.03447355168736892,-0.09023773556098248,0.34191682298604353,0.0,0.0
2.064128256513026,-0.07081601305596107,0.1499728500081255,0.03268624146882488,-0.08936551092720185,0.2312410441324584,0.0,0.0
2.0841683366733466,-0.06773568341061806,0.1540164822671501,0.03096980366258241,-0.08582189031212352,0.2096645309922871,0.0,0.0
2.1042084168336674,-0.06458240928093033,0.15766370648438627,0.02932602952018637,-0.082188707119802,0.2159362757884697,0.0,0.0
2.124248496993988,-0.061353273198939115,0.1614568040995605,0.027740887071093817,-0.07925712245462768,0.17785512500029135,0.0,0.0
2.1442885771543083,-0.05806268095474695,0.1645296122096085,0.026226647028485553,-0.07571200213041317,0.18183499779067067,0.0,0.0
2.164328657314629,-0.05470864629252643,0.1677017331110258,0.02477143419975278,-0.07276064143663877,0.11479688681247703,0.0,0.0
2.1843687374749496,-0.05131691153086247,0.16958673808319824,0.023405274050519093,-0.06830800746168428,0.10009354850261018,0.0,0.0
2.2044088176352705,-0.047892823190465096,0.17120441701986885,0.022128151623259443,-0.0638561213629825,0.058498245795944044,0.0,0.0
2.224448897795591,-0.04445224681647667,0.17202881869942122,0.02095634029436271,-0.05859056644483654,0.5105890576654686,0.0,0.0
2.244488977955912,-0.040818435187303506,0.1816905814586582,0.019618058033614032,-0.06691411303743398,0.5414909249177605,0.0,0.0
2.2645290581162323,-0.03697894557627021,0.19197448055166488,0.018086785568255766,-0.07656362326791324,0.394053932898828,0.0,0.0
2.284569138276553,-0.03299087054534372,0.19940375154632467,0.016439088693391612,-0.0823848437432076,0.2679551425552862,0.0,0.0
2.3046092184368736,-0.028902943431202997,0.20439635570703618,0.014738324586431043,-0.08503820534802846,0.0029769844339496143,0.0,0.0
2.3246492985971945,-0.02481807642966729,0.2042433500767854,0.013128751366746764,-0.08047866098421394,-0.05162349340131351,0.0,0.0
2.344689378757515,-0.02075711505429556,0.20304806876858653,0.01163215772415165,-0.0748296821297557,-0.06667933637686636,0.0,0.0
2.3647294589178354,-0.016725506039127126,0.2015804507584218,0.010247914968896836,-0.06921213776274071,-0.06311385444653908,0.0,0.0
2.3847695390781563,-0.012721461751800224,0.20020221436634508,0.008965210358265823,-0.06413523053155067,-0.034311449511426964,0.0,0.0
2.4048096192384767,-0.008733375496621154,0.19940431275895354,0.007759108687797573,-0.060305083523412496,-0.10147866544795477,0.0,0.0
2.4248496993987976,-0.004787112085833906,0.19731317053936243,0.006661294816932777,-0.05489069354323977,0.5591484211949126,0.0,0.0
2.444889779559118,-0.0006245640125939174,0.20812740366199942,0.005278407445030541,-0.06914436859511183,0.44458182601199203,0.0,0.0
2.464929859719439,0.00370995866165022,0.21672613371220686,0.0036687403941803,-0.08048335254251203,0.28005210455488583,0.0,0.0
2.4849699398797593,0.00815271373726395,0.2221377537806865,0.0019183859086247385,-0.08751772427777808,0.015196721240816946,0.0,0.0
2.50501002004008,0.012600849375840089,0.22240678192880695,0.00017123869115804637,-0.08735736087333461,-0.2062549456547613,0.0,0.0
2.5250501002004007,0.016968449900316093,0.21838002622380023,-0.0014541750568488978,-0.08127068740034721,-0.2424680902953027,0.0,0.0
2.5450901803607215,0.02124184970230003,0.2136699900991969,-0.002946921334007142,-0.07463731385791222,-0.24250167643611015,0.0,0.0
2.565130260521042,0.025421463459716787,0.20898068787083776,-0.004316394073491749,-0.06847363697423031,-0.31950593562832286,0.0,0.0
2.5851703406813624,0.029477634668441888,0.20280856043625498,-0.005526184834430996,-0.06048953804696236,-0.3660262559282501,0.0,0.0
2.6052104208416833,0.03339255678832442,0.19574610599412665,-0.0065567110390598645,-0.051526310231443426,-0.32028767637474626,0.0,0.0
2.6252505010020037,0.03718437369719337,0.18959084544344731,-0.0074412278369673035,-0.04422583989537196,0.231092943004299,0.0,0.0
2.6452905811623246,0.041068501291378894,0.19420637970927618,-0.008507847031196494,-0.053330959711459534,0.2615186556312029,0.0,0.0
2.665330661322645,0.045057117803247525,0.19943082559343153,-0.009781090326504009,-0.06366216476537571,0.08421518155408003,0.0,0.0
2.685370741482966,0.04908139969502641,0.20121409458894432,-0.0111652716904166,-0.06920906819562954,-0.07849424801142257,0.0,0.0
2.7054108216432864,0.05307825040578083,0.1998425355377212,-0.012573943974173564,-0.0704336141878482,-0.09537932062820197,0.0,0.0
2.7254509018036073,0.05704148456871098,0.1981617081465073,-0.014006113578852408,-0.07160848023394224,-0.19272352311558213,0.0,0.0
2.7454909819639277,0.060933526754426426,0.19460210928577254,-0.01541387420273925,-0.07038803119434214,-0.3328783048747832,0.0,0.0
2.7655310621242486,0.06470008932500412,0.1883281285288846,-0.01672412869555493,-0.06551272464078399,-0.44035644649599626,0.0,0.0
2.785571142284569,0.06829960820706941,0.1799759441032648,-0.017882281052436715,-0.057907617844089244,-0.44307318010198643,0.0,0.0
2.8056112224448895,0.07173135576781306,0.17158737803718205,-0.0188940503613178,-0.05058846544405426,-0.4666529086675088,0.0,0.0
2.8256513026052104,0.07498642131233924,0.16275327722630908,-0.01975203047359917,-0.04289900561406844,-0.0965105963783176,0.0,0.0
2.845691382765531,0.07820948630046391,0.1611532494062339,-0.02067811093918448,-0.04630402327926538,-0.040437352863717295,0.0,0.0
2.8657314629258517,0.08142269644499742,0.16066050722667524,-0.02171092421929877,-0.05164066400571446,-0.16869682710776068,0.0,0.0
2.885771543086172,0.08457629881367093,0.15768011843367583,-0.022781973215770485,-0.05355244982358583,-0.2811999137541151,0.0,0.0
2.905811623246493,0.08762670018443844,0.1525200685383754,-0.023832220302278148,-0.052512354325383113,-0.400436247943779,0.0,0.0
2.9258517034068134,0.09052767442539918,0.14504871204803665,-0.02479856297482364,-0.04831713362727471,-0.4316737808881482,0.0,0.0
2.9458917835671343,0.09326730970044554,0.1369817637523182,-0.02566883225978273,-0.04351346424795432,-0.46132716397771256,0.0,0.0
2.9659318637274548,0.09583428486476984,0.12834875821621547,-0.026431180307208507,-0.038117402371288966,-0.5003176148989724,0.0,0.0
2.9859719438877756,0.0982136045147065,0.11896598249683268,-0.02706761933872035,-0.031821951575592214,-0.4688097841596985,0.0,0.0
3.006012024048096,0.10041774600628572,0.11020707457896121,-0.027600590221205583,-0.026648544124261604,-0.5330447888174394,0.0,0.0
3.0260521042084165,0.10242179761987096,0.10020258067926148,-0.027995897505309186,-0.01976536420518018,-0.23676870475798073,0.0,0.0
3.0460921843687374,0.10434148100142847,0.09598416907787546,-0.02842927261439453,-0.02166875545426722,-0.3156074956796445,0.0,0.0
3.066132264529058,0.10614615713719798,0.09023380678847547,-0.028857351480146683,-0.021403943287607616,-0.36112328470285826,0.0,0.0
3.0861723446893787,0.10781818836406803,0.08360156134350265,-0.029256221754317444,-0.01994351370853815,-0.4255537219654467,0.0,0.0
3.106212424849699,0.10933254820530983,0.07571799206208935,-0.029590728431027523,-0.01672533383550401,-0.42031903166313234,0.0,0.0
