time,x,x_dot,theta,theta_dot,u,x_ref,theta_ref
0.0,0.32148950086269945,0.005370407163889118,0.1459846635147865,0.04695208256213729,9.88042358499065,0.0,0.0
0.02004008016032064,0.32540536867253095,0.19579339049157463,0.1421301208154227,-0.1927271349681899,6.8749764650860845,0.0,0.0
0.04008016032064128,0.3319600691431672,0.3277350235318136,0.13519208349590486,-0.34690186597589145,6.036745578262611,0.0,0.0
0.06012024048096192,0.3408294263633881,0.44346786101104313,0.12560790534454427,-0.4792089075680295,5.17740707956983,0.0,0.0
0.08016032064128256,0.3516818020042036,0.5426187820407762,0.11381065086621825,-0.5898627239163011,4.171582265813156,0.0,0.0
0.1002004008016032,0.36412896341240913,0.6223580704102764,0.10030552409589727,-0.6752563385160489,3.5316168693694383,0.0,0.0
0.12024048096192384,0.3779255963811667,0.6898316484378775,0.08537606260387437,-0.7464730746011452,3.145576885328465,0.0,0.0
0.1402805611222445,0.3929256494941022,0.7500026556467748,0.06915025758154153,-0.8112902511166417,2.6785943135227424,0.0,0.0
0.16032064128256512,0.4089517311890012,0.801304084744949,0.05179607266847297,-0.8677092456534279,1.6265791993411596,0.0,0.0
0.18036072144288576,0.4255983652971248,0.832331705406181,0.033817122708068956,-0.8989474980202006,0.7286322846957717,0.0,0.0
0.2004008016032064,0.44252015496598385,0.8460894834429514,0.015624615641698616,-0.909625353318517,-0.4275245392414663,0.0,0.0
0.22044088176352705,0.45927089083762485,0.8375367935820501,-0.0022196906711319415,-0.8922153156415278,-2.710461582019849,0.0,0.0
0.24048096192384769,0.474964536092154,0.7846822627264569,-0.01849239898370702,-0.8136354156287539,-1.7945932818498413,0.0,0.0
0.2605210420841683,0.4899629622026325,0.7499213055239259,-0.03383176932759097,-0.7669685171941976,-1.9429009030139452,0.0,0.0
0.280561122244489,0.5042125821947955,0.7124809996081498,-0.048248043031139776,-0.7208136851774403,-2.2823549345220937,0.0,0.0
0.3006012024048096,0.5175850362849358,0.6686227045070148,-0.06163433121088409,-0.6693144089872156,-2.619098771794025,0.0,0.0
0.32064128256513025,0.5299528120667231,0.6183887890893657,-0.07387935719085469,-0.6122512989985296,-2.8914528208048886,0.0,0.0
0.3406813627254509,0.5412132684572075,0.5630228195242198,-0.08490271405768432,-0.5511678433414818,-3.0838627928352746,0.0,0.0
0.3607214428857715,0.5512946580262793,0.5040694784535897,-0.09466325896966059,-0.4880272455988133,-3.216142976462591,0.0,0.0
0.3807615230460922,0.5601483597520035,0.44268508628621195,-0.10314710401036382,-0.4241922520351621,-3.3173221736616973,0.0,0.0
0.4008016032064128,0.5677375311919615,0.3794585719978968,-0.11035046536958008,-0.360168067960813,-3.3367107798484623,0.0,0.0
0.42084168336673344,0.5740568528586452,0.3159660833341869,-0.11630896043210621,-0.29792475312630645,-0.4418750257902082,0.0,0.0
0.4408817635270541,0.5802367183280741,0.3089932734714453,-0.12274174386978241,-0.3216391718838098,-0.7622164769876659,0.0,0.0
0.4609218436873747,0.5861540177559881,0.29586497139569606,-0.1295033464158184,-0.3380801273017989,-1.0850968426639436,0.0,0.0
0.48096192384769537,0.5916847743038621,0.27653782739370486,-0.1364492277266304,-0.34729406554059944,-1.337500494369707,0.0,0.0
0.501002004008016,0.5967325643663369,0.25238950312374087,-0.1434771757247729,-0.35139739990712476,-1.6766520683108697,0.0,0.0
0.5210420841683366,0.6011672169972775,0.22173263154702724,-0.1504356654207671,-0.3479244847997114,-2.2233377193900843,0.0,0.0
0.5410821643286573,0.6047777376440775,0.1805260323400005,-0.1570533609891878,-0.3308847784210338,-2.5624454212639836,0.0,0.0
0.561122244488978,0.6074339788991249,0.13281206275237017,-0.163177245442299,-0.3061942226555605,-2.8779325391987545,0.0,0.0
0.5811623246492986,0.609014900587206,0.07904608440405639,-0.16866520451764871,-0.2743979537674861,-3.172621620184296,0.0,0.0
0.6012024048096192,0.6094074187259019,0.01962590693479424,-0.17338339092909844,-0.23590932057248581,-3.427002624719533,0.0,0.0
0.6212424849699398,0.6085139504382726,-0.04467341438146198,-0.17721646667159155,-0.19165378712465572,-3.6632316806468457,0.0,0.0
0.6412825651302605,0.6062437358843132,-0.11351072769796759,-0.1800539757902726,-0.14187545593405276,-3.8887228972389556,0.0,0.0
0.6613226452905812,0.6025099041144414,-0.18669158849359177,-0.1817852478156687,-0.08656360126980518,-4.116194161075578,0.0,0.0
0.6813627254509018,0.5972244737794504,-0.2642715167495499,-0.18229125731923151,-0.025300475178140838,-4.302545441810447,0.0,0.0
0.7014028056112224,0.5903150797925373,-0.3454696993456591,-0.18146845929739955,0.04113990109159883,-4.42355750316339,0.0,0.0
0.721442885771543,0.5817343540365401,-0.4290362877998636,-0.17924189433549154,0.11132824809540073,-4.4583163506394055,0.0,0.0
0.7414829659318637,0.5714680355128966,-0.5133159261821736,-0.17557665432705133,0.18326200042201005,-4.404398538751318,0.0,0.0
0.7615230460921844,0.5595359067742536,-0.5966064369321507,-0.170479104119837,0.25487751036071626,-4.220373118248007,0.0,0.0
0.781563126252505,0.5460079463539301,-0.676398021016172,-0.164020926130073,0.32290889948819995,-4.02992064195336,0.0,0.0
0.8016032064128256,0.5309562201689786,-0.752586309247578,-0.15626870912796703,0.38761085010529805,-3.8735543218787702,0.0,0.0
0.8216432865731462,0.514439137963309,-0.8258541102834808,-0.14726115083547703,0.45037791462449983,-5.592339656116831,0.0,0.0
0.8416833667334669,0.4957841668538138,-0.9327485554747574,-0.13594567963440085,0.5657735600538087,-4.901551787297026,0.0,0.0
0.8617234468937875,0.4752566397294298,-1.026376356219202,-0.12264543097460424,0.6650124329898301,-4.016182870278846,0.0,0.0
0.8817635270541082,0.45319731735914315,-1.10296611851433,-0.1077850722686487,0.7430179352977775,-3.066879461677372,0.0,0.0
0.9018036072144289,0.42997170328719986,-1.161280703597164,-0.09181866938071788,0.798320144396541,-2.627327506681208,0.0,0.0
0.9218436873747494,0.4057464828338164,-1.2112610226691718,-0.07489890432970599,0.8459882525505944,-1.4651925281340787,0.0,0.0
0.9418837675350701,0.380970075410753,-1.2388203711531718,-0.057594910843537184,0.8651996743084401,-0.8506481692050385,0.0,0.0
0.9619238476953907,0.3558774311247594,-1.2546322142996804,-0.04015590386394365,0.8719503489796765,-0.9267772854300675,0.0,0.0
0.9819639278557114,0.3304340777826915,-1.272167667103394,-0.02242749152307559,0.886420617043403,0.23004373056130767,0.0,0.0
1.002004008016032,0.30508657256658284,-1.2673752608054343,-0.0049745056681443425,0.8726492927465623,-0.9030607551268484,0.0,0.0
1.0220440881763526,0.2793880220802317,-1.2849275243175553,0.012975480978828353,0.8974993323486347,1.60379527883987,0.0,0.0
1.0420841683366733,0.25431179174544816,-1.2538115167391795,0.030068895024311804,0.8546707022741725,0.6521785097345457,0.0,0.0
1.062124248496994,0.2294818570091051,-1.2414967368171532,0.0469699313708353,0.8450518173261748,0.3560091384224164,0.0,0.0
1.0821643286573146,0.20477803666536853,-1.2351910171868274,0.06395803200394856,0.8494050316556628,0.846261192628196,0.0,0.0
1.1022044088176353,0.18038697302739376,-1.219553181898739,0.08085383135317203,0.8447899674611732,1.5507314337286702,0.0,0.0
1.122244488977956,0.15657881698954806,-1.1904078018922855,0.09735327616679941,0.824972240681369,2.030482905360138,0.0,0.0
1.1422845691382766,0.1335360412017915,-1.1521387893878279,0.11328197699984932,0.7964350416524953,2.3724763007510314,0.0,0.0
1.1623246492985972,0.11138743732065917,-1.107430194056616,0.12854310834311772,0.7630565671634193,2.8182115286763447,0.0,0.0
1.1823647294589177,0.09030231081847295,-1.054256325109311,0.14297645570227496,0.7216673679578619,3.182132849998827,0.0,0.0
1.2024048096192383,0.07041817430844005,-0.9942068255016453,0.15646513054416747,0.6744337420946254,3.542398355890012,0.0,0.0
1.222444889779559,0.05187126231811513,-0.9273455995162461,0.16888940228585633,0.6212135870844435,6.838708844021827,0.0,0.0
1.2424849699398797,0.03594135719129778,-0.7964952563408675,0.1784341707976722,0.4772384255907939,6.802417278223794,0.0,0.0
1.2625250501002003,0.022610666932697712,-0.6665345129300035,0.1851873983197455,0.3376613761036651,6.536937286749834,0.0,0.0
1.282565130260521,0.011773212314491277,-0.5418727309103217,0.1893490257331628,0.20808137067086513,6.249834715628029,0.0,0.0
1.3026052104208417,0.0033156137823449495,-0.4228799266073164,0.1911129016950615,0.08819379809493537,5.930566753094552,0.0,0.0
1.3226452905811623,-0.0028870992329189374,-0.3101356507631943,0.19067432217350477,-0.021928976077837184,5.608759196617352,0.0,0.0
1.342685370741483,-0.006960059225434169,-0.20364799962576158,0.1882146573635642,-0.12298324049702879,5.2304674476044735,0.0,0.0
1.3627254509018036,-0.00904966059671946,-0.10448006856426453,0.18393381212205392,-0.21404226207551322,4.873539782906192,0.0,0.0
1.3827655310621243,-0.009293372495304458,-0.012185594929249921,0.1780073092140481,-0.2963251454002923,4.463842223221758,0.0,0.0
1.4028056112224447,-0.007848696695496054,0.0722337899904202,0.17063031402060966,-0.3688497596719221,4.022638098955547,0.0,0.0
1.4228456913827654,-0.004884999670346529,0.1481848512574762,0.16200709970253294,-0.43116071590383614,4.49960478034703,0.0,0.0
1.442885771543086,-0.00021373201156890068,0.2335633829388814,0.15180549569850094,-0.5100802002015994,3.7165338326631554,0.0,0.0
1.4629258517034067,0.0058633932238470075,0.3038562617707954,0.14040929560546486,-0.5698100046518032,3.047906000564964,0.0,0.0
1.4829659318637274,0.013089412426139924,0.3613009601146458,0.12813016269672023,-0.6139566454372315,2.3415431443528694,0.0,0.0
1.503006012024048,0.02119272897185585,0.40516582728579636,0.11529756264803191,-0.6416300024344158,1.8872239937172004,0.0,0.0
1.5230460921843687,0.029999975939169705,0.4403623483656928,0.10209275872134038,-0.6602401963345762,1.367884778517394,0.0,0.0
1.5430861723446894,0.03931242967904543,0.465622686993786,0.08873345021463686,-0.6679654253351766,0.7173399217195705,0.0,0.0
1.56312625250501,0.0488801320485224,0.4783851184738488,0.07551375609074623,-0.6609847061945312,0.1709421160896929,0.0,0.0
1.5831663326653307,0.05849360169997069,0.48067348257241443,0.06266897138157804,-0.64223923545841,-0.5313649141982592,0.0,0.0
1.6032064128256511,0.06788237112435254,0.46943847121909227,0.05052838763373864,-0.6070291873919699,-1.455585268028241,0.0,0.0
1.6232464929859718,0.07668914625023113,0.4403387562939295,0.03955593157645067,-0.5486228028643985,-2.043372718700908,0.0,0.0
1.6432865731462925,0.08468754238125804,0.39991980655134596,0.03002672169865547,-0.4764604938897599,-1.9067386667429413,0.0,0.0
1.6633266533066131,0.09193346035490983,0.36229589868258916,0.021801435908616097,-0.41126428950196864,-1.7821773369316298,0.0,0.0
1.6833667334669338,0.09847777547732556,0.32721575612078635,0.014755749338925924,-0.35228432848450864,-1.6671828226137428,0.0,0.0
1.7034068136272544,0.10436732962490353,0.29447770737889845,0.008778190389391654,-0.2988779474767135,-1.5777429541354984,0.0,0.0
1.723446893787575,0.10963871010073843,0.26356902379174496,0.0037788599257172206,-0.24996652318372167,-1.456199671664528,0.0,0.0
1.7434869739478958,0.11434076555521892,0.23510277272402427,-0.00034481674343676653,-0.20618383345769936,-1.321407812112877,0.0,0.0
1.7635270541082164,0.11852727179081457,0.20932531177978242,-0.0036976789117113325,-0.1676431084137283,-1.1695958217041853,0.0,0.0
1.783567134268537,0.12225842955749827,0.1865578883341851,-0.006389678387676097,-0.13459997379823824,-1.0392316926541691,0.0,0.0
1.8036072144288577,0.1255858824421494,0.16637264423255746,-0.008514058717620258,-0.10621901649720802,-0.9189127109350417,0.0,0.0
1.8236472945891782,0.12855719197277604,0.1485654765313317,-0.010154607833756392,-0.0820274558068067,-0.16935980059941147,0.0,0.0
1.8436873747494988,0.13146532252397583,0.14540652755998973,-0.011760123330704548,-0.08027577484740783,-0.10584129464838121,0.0,0.0
1.8637274549098195,0.13433552052373005,0.1435098999877102,-0.013377884212934553,-0.08088804411150029,-0.25558458789322025,0.0,0.0
1.8837675350701402,0.13710981644116807,0.13871479587190183,-0.014930505169356406,-0.07763104782109266,-0.32912388912723756,0.0,0.0
1.9038076152304608,0.1397599589049364,0.1325071231884162,-0.01638476628569298,-0.07271305581682874,-0.33825197978645166,0.0,0.0
1.9238476953907815,0.14228280307712754,0.1261422086095574,-0.01774450278803009,-0.06798682511685554,-0.43173697572780523,0.0,0.0
1.9438877755511021,0.14464225955175836,0.11797282373154147,-0.01896361641746002,-0.06095568147149643,-0.4680510488276513,0.0,0.0
1.9639278557114228,0.14682450796187926,0.10911242050604596,-0.02002856148092944,-0.053247253173470954,-0.5650193413099007,0.0,0.0
1.9839679358717435,0.14879201567809858,0.09837538581096623,-0.020889347774986095,-0.04303931470283273,-0.5102982233123712,0.0,0.0
2.004008016032064,0.15056638305053224,0.08871836862168286,-0.021583411394522484,-0.0347031809768195,-0.41081527862730455,0.0,0.0
2.024048096192385,0.1521866290175032,0.08101229834854785,-0.02217331245855404,-0.029495053201577654,0.07224504004858318,0.0,0.0
2.0440881763527052,0.1538414188733837,0.08273949279402411,-0.02294527122654398,-0.03859793839949704,0.11098860170804759,0.0,0.0
2.064128256513026,0.15554609144372247,0.08523362851693796,-0.02392680973923054,-0.0490769256343281,-0.14803919781026054,0.0,0.0
2.0841683366733466,0.15719985195854702,0.0826880257412277,-0.0249726380642338,-0.052291416250163,-0.2644444710479029,0.0,0.0
2.1042084168336674,0.15875757750017078,0.07788627708118806,-0.026021280935934775,-0.05243214358504875,-0.45746975301261905,0.0,0.0
2.124248496993988,0.16014424878628336,0.06933356430562988,-0.026966481802932447,-0.047260043349883527,-0.5981158162673104,0.0,0.0
2.1442885771543083,0.1613052563557085,0.058050378471257366,-0.027731966181846618,-0.038274218945708545,-0.6150606365826945,0.0,0.0
2.164328657314629,0.16223420841821135,0.04644760312514271,-0.02831265969579022,-0.029034675697180122,-0.4995172019618236,0.0,0.0
2.1843687374749496,0.16297635744795425,0.037107451487145275,-0.028779788136381986,-0.02335642202958825,-0.5095767627848625,0.0,0.0
2.2044088176352705,0.16352791237318617,0.027577746261595794,-0.02913041841615494,-0.017531513988647576,-0.5111223501058462,0.0,0.0
2.224448897795591,0.16388837084618607,0.018022923649995325,-0.029365860258584366,-0.011772092121471376,-0.1802250693008411,0.0,0.0
2.244488977955912,0.16418691712664346,0.01492731402286958,-0.029681070438875894,-0.01576050901457636,-0.09729203086578748,0.0,0.0
2.2645290581162323,0.16445600197147137,0.013454242241395747,-0.030126525597331245,-0.022272757922767436,-0.30249779335198185,0.0,0.0
2.284569138276553,0.16461568141208183,0.007983972030522929,-0.030585056120130516,-0.02292652613996359,-0.48733500265118523,0.0,0.0
2.3046092184368736,0.16459396346407132,-0.0010858974005255647,-0.030951487470463227,-0.01832156751663555,-0.5194898067136339,0.0,0.0
2.3246492985971945,0.16437840659975791,-0.010777843215670843,-0.031209333263058102,-0.012892289629743783,-0.5276359916450549,0.0,0.0
2.344689378757515,0.16396590628039226,-0.020625015968283027,-0.03135545864758422,-0.007306269226305916,-0.5340850035035527,0.0,0.0
2.3647294589178354,0.1633539881143699,-0.030595908301116928,-0.03138701578798606,-0.0015778570200922866,-0.5297626406822107,0.0,0.0
2.3847695390781563,0.16254434776585774,-0.04048201742560844,-0.031306730984591115,0.004014240169747232,-0.5265446538618271,0.0,0.0
2.4048096192384767,0.1615382178404645,-0.05030649626966274,-0.031115978791713395,0.009537609643885961,-0.5090727711772735,0.0,0.0
2.4248496993987976,0.1603423610571537,-0.05979283916554051,-0.030823769914655425,0.014610443852898442,-0.2648635125624397,0.0,0.0
2.444889779559118,0.15905198370112153,-0.0645188678016084,-0.030571037921833293,0.012636599641106654,-0.22185552976120962,0.0,0.0
2.464929859719439,0.15768379508694344,-0.06840943070890494,-0.030381333890570024,0.009485201563163468,-0.32007501247866554,0.0,0.0
2.4849699398797593,0.15619941570259013,-0.07421896921766526,-0.03019603614186429,0.00926488743528675,-0.45950077369764086,0.0,0.0
2.50501002004008,0.15454438850285807,-0.08275135998660356,-0.029932457995692878,0.013178907308570565,-0.4940757376884081,0.0,0.0
2.5250501002004007,0.15270514666083534,-0.09196209210113546,-0.029568720834347844,0.018186858067251774,-0.5069888030403761,0.0,0.0
2.5450901803607215,0.15067654703375685,-0.10142998135392459,-0.02909497865190976,0.023687109121904224,-0.4863751593910237,0.0,0.0
2.565130260521042,0.1484664970427039,-0.11050249955264707,-0.02852029354409815,0.02873425539058043,-0.4771843950717771,0.0,0.0
2.5851703406813624,0.14607841792739415,-0.11940395576548743,-0.027846411940296387,0.033694080190088155,-0.45502266602921704,0.0,0.0
2.6052104208416833,0.14352076378879278,-0.12788270693006928,-0.027082038713830702,0.038218661323284324,-0.4409894737843527,0.0,0.0
2.6252505010020037,0.1407987910199713,-0.1360986384410734,-0.026230555291029634,0.042574171140053414,-0.4129379878747451,0.0,0.0
2.6452905811623246,0.13792320108284012,-0.1437794968565591,-0.025302990912067544,0.046378218948104566,-0.3750946930261899,0.0,0.0
2.665330661322645,0.1349084945466164,-0.1507353268111857,-0.02431562152123495,0.04936846954162975,-0.3513714892395626,0.0,0.0
2.685370741482966,0.1317636451751441,-0.15724246857361457,-0.023276089952102848,0.0519765784566052,-0.32241073827259303,0.0,0.0
2.7054108216432864,0.1284996556005806,-0.16319947872817533,-0.02219477365314041,0.054065814948121786,-0.2896357192083091,0.0,0.0
2.7254509018036073,0.1251290049483208,-0.16853253261298998,-0.02108401809681333,0.05553777781635397,-0.283310669186843,0.0,0.0
2.7454909819639277,0.12165384288460214,-0.1737581031859331,-0.019940515574624458,0.05717512610944371,-0.2578585527985495,0.0,0.0
2.7655310621242486,0.11808377335383752,-0.17850347653823082,-0.018771938287262663,0.058428864368089695,-0.24318290464616477,0.0,0.0
2.785571142284569,0.1144241880386946,-0.18297926575714582,-0.017579498409397872,0.05962199389323952,-0.2199656010050539,0.0,0.0
2.8056112224448895,0.11068380491521955,-0.18701915617375278,-0.016369253800388683,0.06051223045045955,-0.20422901833617288,0.0,0.0
2.8256513026052104,0.10686841780083053,-0.19076935571945064,-0.015142775337904401,0.061323923124214065,-0.29158079788659486,0.0,0.0
2.845691382765531,0.10294358879841618,-0.19624145012071767,-0.013841235893881977,0.06507697220112121,-0.12627843049965956,0.0,0.0
2.8657314629258517,0.09897344905543569,-0.1985069871490248,-0.012553112332860451,0.0644061780510763,-0.22479653470801914,0.0,0.0
2.885771543086172,0.0949191856065576,-0.20271317244390452,-0.011212656224871411,0.06702280539945195,-0.1764975819098139,0.0,0.0
2.905811623246493,0.09079926151407931,-0.2059962046239145,-0.009839664714474693,0.06864957551983587,-0.13634810547013584,0.0,0.0
2.9258517034068134,0.08662895051853012,-0.20851554977745992,-0.008448963871494644,0.06953504214900247,-0.10515016547761721,0.0,0.0
2.9458917835671343,0.08242002826235108,-0.21044611280895215,-0.007050032665232813,0.06994656031309154,-0.07013849482636768,0.0,0.0
2.9659318637274548,0.07818575628960742,-0.2117135986371828,-0.005654529535212546,0.06977515650101335,-0.034553921812279925,0.0,0.0
2.9859719438877756,0.0739396207293287,-0.21230677801393552,-0.004274470112550974,0.06900297113307864,-0.0015223000480969959,0.0,0.0
3.006012024048096,0.06969411593635857,-0.21227523964850628,-0.00292047435014563,0.06769978812026717,0.029815603766094906,0.0,0.0
3.0260521042084165,0.06546108281154595,-0.21165165624063134,-0.001602335964104454,0.0659069193020588,-0.13179358462908422,0.0,0.0
3.0460921843687374,0.061177079556206417,-0.21420016276697634,-0.0002172060815440924,0.06925649412801807,-0.06716899213800487,0.0,0.0
3.066132264529058,0.056866927448244446,-0.21550760539809855,0.0012058462057722786,0.07115261436581855,-0.02506613545910548,0.0,0.0
3.0861723446893787,0.0525466483611772,-0.21601395435336246,0.002651165407852506,0.07226596010401137,0.03176391980658526,0.0,0.0
3.106212424849699,0.04823800472922798,-0.2154321815974612,0.00409462148738033,0.0721728039763912,0.09982477321815587,0.0,0.0
