time,x,x_dot,theta,theta_dot,u,x_ref,theta_ref
0.0,1.6784095495074207,-0.08567547863869712,0.16923254160087547,-0.09285068780555153,9.999999999999998,0.0,0.0
0.02004008016032064,1.6805427624012588,0.10666064469190184,0.16268115203158076,-0.3275694784647359,9.999999999999998,0.0,0.0
0.04008016032064128,1.686525379206996,0.29913084028686654,0.15138721011829864,-0.5646970956641065,9.999999999999996,0.0,0.0
0.06012024048096192,1.6963620523108918,0.49183365519477945,0.13526807935234803,-0.8059565382975316,9.984466954801913,0.0,0.0
0.08016032064128256,1.7100532065493508,0.6845577119229508,0.11421607767975889,-1.052600083629457,9.99999999999998,0.0,0.0
0.1002004008016032,1.72761295642096,0.8779874935804582,0.08807230536769263,-1.3071886156033128,5.967885673331493,0.0,0.0
0.12024048096192384,1.747478044752782,0.9932544165911099,0.059002952529043154,-1.4534676419324737,5.819372075847513,0.0,0.0
0.1402805611222445,1.7695989876025033,1.1060471424860672,0.02690433565090749,-1.604930843906783,1.3154343898250183,0.0,0.0
0.16032064128256512,1.7922268643348271,1.1313938366161898,-0.005795852470906568,-1.6350094060907028,0.18869435773914245,0.0,0.0
0.18036072144288576,1.8149297333063688,1.135143448577081,-0.0386425149374674,-1.6423331233280414,-2.5772597789880898,0.0,0.0
0.2004008016032064,1.8366360293060768,1.085314799985409,-0.0702233864650732,-1.57904357638029,2.050490944232167,0.0,0.0
0.22044088176352705,1.8591588354030844,1.1261403048503718,-0.10343755793776147,-1.660708573634413,-3.985486630314993,0.0,0.0
0.24048096192384769,1.8801514754069866,1.0496320001951092,-0.13497692373505263,-1.5769682898645578,-1.48891047919673,0.0,0.0
0.2605210420841683,1.9005955219229707,1.0222023257992083,-0.16649215560895286,-1.575761593695011,-3.2166716590476794,0.0,0.0
0.280561122244489,1.9198255942104612,0.9615036143745289,-0.19718657643504403,-1.5347210413045587,-3.7487112258037136,0.0,0.0
0.3006012024048096,1.9376428505682213,0.8908628178880049,-0.22695537685419576,-1.488440020957587,-5.040348869043606,0.0,0.0
0.32064128256513025,1.9535534067162195,0.795527807399913,-0.2552614550306791,-1.4153039088241666,-6.2232878690134585,0.0,0.0
0.3406813627254509,1.9671066252796268,0.6776609281703666,-0.28163200324328874,-1.3185274106304836,-7.281981813805594,0.0,0.0
0.3607214428857715,1.9779009046833818,0.539713970187746,-0.3056628368312274,-1.2015416793969338,-8.219650487607227,0.0,0.0
0.3807615230460922,1.985582057658381,0.38405764874996295,-0.32701154905005597,-1.067435610941428,-9.009093429420036,0.0,0.0
0.4008016032064128,1.9898534047732763,0.21356735574477068,-0.34540718503032186,-0.9197817990132947,-9.637256258400944,0.0,0.0
0.42084168336673344,1.990480321113959,0.03134581703413242,-0.3606518665427092,-0.7622340756193681,-4.619546713387072,0.0,0.0
0.4408817635270541,1.989410660428631,-0.05348303426640033,-0.3755905519468954,-0.7469342702093086,-5.548143811172306,0.0,0.0
0.4609218436873747,1.9862899719097675,-0.1560344259431779,-0.3898245114534498,-0.7116979753277212,-6.474767876751591,0.0,0.0
0.48096192384769537,1.9807650508976677,-0.27624605060498847,-0.4029579270759939,-0.6566707811272054,-7.325558888247703,0.0,0.0
0.501002004008016,1.9725122785015587,-0.4126386198054467,-0.41463399642709764,-0.5838034675551854,-8.103961065035229,0.0,0.0
0.5210420841683366,1.9612360186131332,-0.563812994421274,-0.42452903302795014,-0.4947518300426252,-8.757121682335388,0.0,0.0
0.5410821643286573,1.9466886965952372,-0.7273661008948002,-0.43237622377398954,-0.3923595373019698,-9.293636322626948,0.0,0.0
0.561122244488978,1.9286671587000783,-0.9010768947579466,-0.4379569854054253,-0.27903808157178916,-9.737174002522968,0.0,0.0
0.5811623246492986,1.9070032655458462,-1.083194657711602,-0.4410850455780803,-0.15640300863274942,-9.999999999914847,0.0,0.0
0.6012024048096192,1.8815974367680606,-1.2702914388892812,-0.44164931642601457,-0.028213542396711866,-9.999998808084607,0.0,0.0
0.6212424849699398,1.8524500864025777,-1.4573675182741432,-0.4396547092449407,0.09973035905369185,-9.999999995129912,0.0,0.0
0.6412825651302605,1.8195603645398797,-1.6444860931348986,-0.43508469811620015,0.22850055643702813,-9.999999990849288,0.0,0.0
0.6613226452905812,1.7829261523378983,-1.831710610099066,-0.42790121652750573,0.3591740794347209,-9.999999999999986,0.0,0.0
0.6813627254509018,1.7425440444526683,-2.019105394261504,-0.41804441265809333,0.4928401934706197,-9.999999999202128,0.0,0.0
0.7014028056112224,1.69840932290217,-2.206736077524913,-0.40543227449674857,0.6306069080672383,-9.999999939788923,0.0,0.0
0.721442885771543,1.6505159249153714,-2.3946698993399256,-0.38996013807001806,0.7736068213365266,-9.999999999999991,0.0,0.0
0.7414829659318637,1.5988564093962039,-2.582975775958371,-0.3715001002244733,0.9230018922772388,-9.999998344635602,0.0,0.0
0.7615230460921844,1.543421929901418,-2.7717239747392957,-0.3499003690793996,1.0799865572536829,-9.25421513144623,0.0,0.0
0.781563126252505,1.4844907661299234,-2.946558188574728,-0.3253909314311482,1.225471882412568,-8.54661587600583,0.0,0.0
0.8016032064128256,1.4223261092774573,-3.108232842623299,-0.2981671767866735,1.3611877322237356,-7.21399351521027,0.0,0.0
0.8216432865731462,1.3574334484134187,-3.2446330432019277,-0.26876069411392844,1.4703241336372528,-6.6456978278486245,0.0,0.0
0.8416833667334669,1.290022625941576,-3.3705411235921385,-0.23727522521864652,1.5742734447640956,-5.8693689446924715,0.0,0.0
0.8617234468937875,1.220384542459934,-3.4819041740820964,-0.2039257585361815,1.6674733341232506,-5.09199685681412,0.0,0.0
0.8817635270541082,1.148811092037282,-3.578672521132602,-0.1689252171147288,1.7500270710726358,-3.8119119245499564,0.0,0.0
0.9018036072144289,1.07579058310716,-3.6510254465061016,-0.13277426603109124,1.8075475541818773,-3.028156592794905,0.0,0.0
0.9218436873747494,1.0016190566510266,-3.7085763228066706,-0.09569098833002213,1.854163885053456,-1.2273462124230128,0.0,0.0
0.9418837675350701,0.9269897457303065,-3.731465546036003,-0.058486056145462574,1.8602466092279777,-0.1345790485830045,0.0,0.0
0.9619238476953907,0.852320707865786,-3.7334518932260234,-0.021565159898073553,1.846044812369451,0.627130392141115,0.0,0.0
0.9819639278557114,0.7779011297992378,-3.720978903327411,0.014855153211051325,1.821015655456244,1.4464697927219272,0.0,0.0
1.002004008016032,0.7040426966016041,-3.692921659881681,0.050521658106765864,1.783325244785727,1.8630457211116067,0.0,0.0
1.0220440881763526,0.6308998158020576,-3.657144039977328,0.08541362899155175,1.7445985442392937,2.6131479762584906,0.0,0.0
1.0420841683366733,0.5587568236828326,-3.6071496059612467,0.11931347630443642,1.6949923656442338,2.866199440513359,0.0,0.0
1.062124248496994,0.4877039642776139,-3.552642970260935,0.1522902266709572,1.6488375183260395,3.5967580861226023,0.0,0.0
1.0821643286573146,0.41801742120099117,-3.4843271538311376,0.18413394004391817,1.592185668648048,4.418149406643195,0.0,0.0
1.1022044088176353,0.35000830492044244,-3.400455814027435,0.21458152035165776,1.5223790153869794,5.236757677277111,0.0,0.0
1.122244488977956,0.2839861131236036,-3.3011095898419405,0.24337018292947152,1.4394331288906879,5.859662576613656,0.0,0.0
1.1422845691382766,0.22018379361994408,-3.1901159751829766,0.2703452276679673,1.3487522369247908,6.492459412091533,0.0,0.0
1.1623246492985972,0.1588378991088777,-3.067294725553319,0.29534103970585746,1.2497906018945084,7.0558746086557464,0.0,0.0
1.1823647294589177,0.10015792839929188,-2.9339985354792897,0.3182238955694148,1.1441427931778678,7.547903480146001,0.0,0.0
1.2024048096192383,0.044325772396507604,-2.791607800139214,0.3388906215408903,1.0333362985737715,7.996538485334076,0.0,0.0
1.222444889779559,-0.00849321995651986,-2.640949617651373,0.35725086158555425,0.9180120022331987,8.326901306611605,0.0,0.0
1.2424849699398797,-0.05817901362873942,-2.484289683610978,0.37326574251755035,0.8007440465998054,8.702279171020542,0.0,0.0
1.2625250501002003,-0.10459352421099222,-2.3207255291126394,0.38685728764445143,0.6795772563450534,8.94983065615751,0.0,0.0
1.282565130260521,-0.14764730747434066,-2.1526891631674214,0.3980002176002738,0.5571464977911187,9.07256221832401,0.0,0.0
1.3026052104208417,-0.1872981807543148,-1.982543663998708,0.4067182108158061,0.4358996607766136,9.115047615117454,0.0,0.0
1.3226452905811623,-0.22353388195945018,-1.8117850602567689,0.41305893830550067,0.3170363744847269,9.088816543652337,0.0,0.0
1.342685370741483,-0.25636756917306125,-1.6416843606805525,0.41708757585671097,0.20143187756051584,8.98643942962421,0.0,0.0
1.3627254509018036,-0.2858406807015456,-1.4736555764242183,0.4188908652777975,0.09016447105432572,8.82195483536746,0.0,0.0
1.3827655310621243,-0.3120175558878399,-1.3088437593147157,0.4185702884167274,-0.016028843053505312,8.600018858974364,0.0,0.0
1.4028056112224447,-0.33498371046630576,-1.1483077289232915,0.4162406067948436,-0.11648408109418994,8.33100843574219,0.0,0.0
1.4228456913827654,-0.3548419319407774,-0.9929110737235831,0.41202568867724493,-0.21074590587993297,9.765526641112224,0.0,0.0
1.442885771543086,-0.3710371801324664,-0.8097624095844488,0.4051325496283435,-0.34465695244507266,8.913176979425169,0.0,0.0
1.4629258517034067,-0.3838951002057872,-0.6428960036660418,0.39595762540467827,-0.4587462111832604,8.136706631633647,0.0,0.0
1.4829659318637274,-0.3937113667750243,-0.49081332846185344,0.3848423118926049,-0.5557656756036664,7.395389627588327,0.0,0.0
1.503006012024048,-0.40076767614607023,-0.35281546855229634,0.3720983135394533,-0.6371999176575828,6.690512553497697,0.0,0.0
1.5230460921843687,-0.4053314655858758,-0.22818947199027811,0.35801003040320384,-0.7044141568124713,6.018931140083053,0.0,0.0
1.5430861723446894,-0.40765728467335843,-0.1162909543741308,0.34283873053105046,-0.7585649936076694,5.409612105750039,0.0,0.0
1.56312625250501,-0.40797569429781233,-0.01592048122269535,0.3268087197847478,-0.8015005373151329,4.811026115541884,0.0,0.0
1.5831663326653307,-0.4065132586548919,0.07312178214602029,0.3101368392522029,-0.833594026627244,4.258137165221336,0.0,0.0
1.6032064128256511,-0.40347905876911905,0.1517099942886419,0.2930145838910838,-0.8561127680559562,3.7233126602259294,0.0,0.0
1.6232464929859718,-0.399075412221974,0.2201823273572508,0.2756242569642766,-0.86951634634036,3.2125764776610013,0.0,0.0
1.6432865731462925,-0.39349555321756685,0.27899295022035897,0.25813649397017513,-0.8743881497050747,2.7423800213081018,0.0,0.0
1.6633266533066131,-0.3869172437763468,0.3289154720610037,0.24070168604579428,-0.8717403962190426,2.299808025110022,0.0,0.0
1.6833667334669338,-0.3795077682807363,0.3704737747805251,0.22345765116273653,-0.8622017441528872,1.8750813786374696,0.0,0.0
1.7034068136272544,-0.3714277210542904,0.4040023613222948,0.20653558946578682,-0.846103084847485,1.4806791691223269,0.0,0.0
1.723446893787575,-0.36282614503085653,0.430078801171692,0.19005339923497652,-0.8241095115405146,1.1887442761503588,0.0,0.0
1.7434869739478958,-0.3538124361500112,0.4506854440422674,0.17407462492539283,-0.7989387154791842,0.7959380810890917,0.0,0.0
1.7635270541082164,-0.34453544630987143,0.46384949200698766,0.15872490168788353,-0.7674861618754656,0.29862293313763477,0.0,0.0
1.783567134268537,-0.33518497981925943,0.467523324530601,0.1441952248707018,-0.7264838408590858,-0.043325076183211686,0.0,0.0
1.8036072144288577,-0.32589061660947277,0.46471816048933207,0.13059318262556263,-0.6801021122569587,-0.18658623358399806,0.0,0.0
1.8236472945891782,-0.31670476312751045,0.45929267409811536,0.11791764704286176,-0.6337767791350436,-0.48443544226132323,0.0,0.0
1.8436873747494988,-0.30774029006151316,0.44822365329986363,0.10626298813901773,-0.5827329451922014,-0.5178995208422037,0.0,0.0
1.8637274549098195,-0.2990072519162199,0.4366519072646625,0.09557656944739129,-0.5343209345813223,-0.529336249629109,0.0,0.0
1.8837675350701402,-0.29050731699850935,0.42499674588552894,0.08579877689365847,-0.48888962768664085,-0.5391990299647521,0.0,0.0
1.9038076152304608,-0.2822417387186171,0.41327891399461486,0.0768745707649339,-0.4462103064362287,-0.5404338870265581,0.0,0.0
1.9238476953907815,-0.27420860162280236,0.40165685479073493,0.06874907487063854,-0.4062747947147678,-0.532283770431739,0.0,0.0
1.9438877755511021,-0.2664025199435851,0.3903040839608615,0.061366819217194356,-0.36911278267220915,-0.5175398509242034,0.0,0.0
1.9639278557114228,-0.25881571834282735,0.3793400800378864,0.054673044698324735,-0.33468872594348087,-0.5038170670259687,0.0,0.0
1.9839679358717435,-0.2514409936617054,0.36873623405609596,0.04861782850217159,-0.3027608098076573,-0.48339506287780404,0.0,0.0
2.004008016032064,-0.24426869417777772,0.35861497419638527,0.043151283625232274,-0.2733272438469658,-0.4605789304723096,0.0,0.0
2.024048096192385,-0.23728838900097082,0.34901525884034523,0.03822577479111121,-0.2462754417060533,-0.5501355805676148,0.0,0.0
2.0440881763527052,-0.23053363800707083,0.337737549694999,0.03386271136757942,-0.21815317117658928,-0.47758390894050184,0.0,0.0
2.064128256513026,-0.22397490372538142,0.3279367140844709,0.02999227125391283,-0.19352200568332972,-0.4396514360454168,0.0,0.0
2.0841683366733466,-0.21759629087876323,0.31893064233090973,0.026567941080524855,-0.1712165086693987,-0.37988211854791154,0.0,0.0
2.1042084168336674,-0.21137350647434688,0.31113922022081675,0.02353322868604618,-0.15173561972393362,-0.3489871404820654,0.0,0.0
2.124248496993988,-0.20529363259675654,0.30399369387951775,0.020850965057485557,-0.13411318142803125,-0.3021672568824145,0.0,0.0
2.1442885771543083,-0.19933763593143913,0.29779983326586984,0.018476879035708833,-0.11870430108883624,-0.26887819070957486,0.0,0.0
2.164328657314629,-0.19349184966687288,0.2922893132283123,0.016376547167629475,-0.10501659340396788,-0.2273484757497225,0.0,0.0
2.1843687374749496,-0.18773946863402444,0.28761905164242185,0.01451244650838541,-0.09320503296220323,-0.18790763818505546,0.0,0.0
2.2044088176352705,-0.18206456962730286,0.28374495033607844,0.012849760955321933,-0.0831342776531739,-0.15739964094951905,0.0,0.0
2.224448897795591,-0.17645477235651766,0.28048986353925964,0.011360166277618626,-0.07447973388516538,-0.1876816751635026,0.0,0.0
2.244488977955912,-0.17092146738049158,0.27666524880130405,0.010051985595669692,-0.0654090340974467,-0.1446666065372889,0.0,0.0
2.2645290581162323,-0.16544749488507604,0.2736986247707772,0.008891811314295454,-0.05800871406871194,-0.10603415810716955,0.0,0.0
2.284569138276553,-0.1600174474323955,0.271502372634027,0.007849731344984864,-0.05210399846552949,-0.0749984412617595,0.0,0.0
2.3046092184368736,-0.15461891569986452,0.26992658662654817,0.006901021089673214,-0.047435512765582485,-0.04450938643458312,0.0,0.0
2.3246492985971945,-0.149239730345104,0.26895926773802686,0.0060218639212516615,-0.043957858421077654,-0.023134339903143918,0.0,0.0
2.344689378757515,-0.1438712984046425,0.2684215970230749,0.005194212736432579,-0.04138255924095412,-0.00459540315150149,0.0,0.0
2.3647294589178354,-0.138506148357091,0.2682575023775752,0.004402004006589685,-0.03961043649214472,0.011476470968572024,0.0,0.0
2.3847695390781563,-0.1331377815221743,0.2684183417458358,0.00363084068903092,-0.03855816587793823,0.01986985996221999,0.0,0.0
2.4048096192384767,-0.12776270157526148,0.26875399734564037,0.0028709500207898123,-0.0379945334120554,0.015861948165298068,0.0,0.0
2.4248496993987976,-0.12238225472107112,0.26902234270951836,0.002119884671916834,-0.03755326744364892,0.12787404397032007,0.0,0.0
2.444889779559118,-0.1169525156749726,0.2714869523049257,0.0013073845106102197,-0.04062500806533072,0.10715178411130918,0.0,0.0
2.464929859719439,-0.11148133791693589,0.2735588879018355,0.00044044777610895006,-0.04334683672506348,0.057241918598961924,0.0,0.0
2.4849699398797593,-0.1059879491028723,0.274669440703179,-0.000457196514138885,-0.04488221451239175,0.09486718776179005,0.0,0.0
2.50501002004008,-0.10045740960827054,0.2765269747300878,-0.0014132186486266471,-0.0478011067243881,0.030511307168282348,0.0,0.0
2.5250501002004007,-0.09491455879081792,0.277142540872631,-0.0023960007468602704,-0.04913910491168116,0.022629020105408307,0.0,0.0
2.5450901803607215,-0.08936219087684151,0.2776183956988208,-0.0034071292033403863,-0.0505564228240058,-0.0176059790862862,0.0,0.0
2.565130260521042,-0.08381571683798972,0.2773237019425893,-0.004429443788072706,-0.05111572923661601,-0.04195520182337563,0.0,0.0
2.5851703406813624,-0.07828434539079157,0.27656857235990706,-0.0054551476335770325,-0.051285192275216336,-0.013908509689764606,0.0,0.0
2.6052104208416833,-0.07275683806198249,0.2763753664404542,-0.0065071150819835865,-0.0525983724203277,-0.07776262529734425,0.0,0.0
2.6252505010020037,-0.06725781087237179,0.27495135948053556,-0.007554627577041818,-0.05237562475291161,0.16644115815367466,0.0,0.0
2.6452905811623246,-0.06169166933502239,0.2783070768674699,-0.00874713888429827,-0.05962556536282258,0.06498488130641968,0.0,0.0
2.665330661322645,-0.05609766263975312,0.2797003347634636,-0.010032820618666947,-0.06428408671843387,-0.058731494282616925,0.0,0.0
2.685370741482966,-0.05052369958121729,0.2786981529267915,-0.01134741233790062,-0.06572958596168368,-0.054282365328022705,0.0,0.0
2.7054108216432864,-0.044967667395201985,0.27780160930076503,-0.012701805956426107,-0.0677196809262743,-0.15277943995751564,0.0,0.0
2.7254509018036073,-0.03946761378932263,0.2750026802939678,-0.014046928883122043,-0.06725614633479676,-0.215975355405637,0.0,0.0
2.7454909819639277,-0.034047813638921315,0.27099000752006575,-0.015354300323172112,-0.06536857200250347,-0.2125936623935092,0.0,0.0
2.7655310621242486,-0.028706572584303272,0.26706205273090206,-0.0166341439531462,-0.06399218149870448,-0.2301398056223205,0.0,0.0
2.785571142284569,-0.02345037060784643,0.26281009882284195,-0.017884269442687173,-0.06250627447704867,-0.28114097877242084,0.0,0.0
2.8056112224448895,-0.01829875088710768,0.2575809860369374,-0.019082732823134087,-0.059923169022345714,-0.3112866737060179,0.0,0.0
2.8256513026052104,-0.013263133099743418,0.2517808893682132,-0.020219463226420303,-0.05683652016431082,-0.12806433465503958,0.0,0.0
2.845691382765531,-0.008271695240878677,0.249571892943237,-0.0214087867552486,-0.05946617644141483,-0.15733320071344725,0.0,0.0
2.8657314629258517,-0.003335517847793775,0.2468088696542451,-0.022641085771072843,-0.06161495079121218,-0.23200432724709313,0.0,0.0
2.885771543086172,0.0015166144373071752,0.2426066142550475,-0.023880463222348207,-0.0619688725637682,-0.39347050293380254,0.0,0.0
2.905811623246493,0.006222051024649172,0.2352718293670998,-0.02504031334944525,-0.05799250635485213,-0.35828527022643647,0.0,0.0
2.9258517034068134,0.010794854277336086,0.22864016263434572,-0.026148529771194154,-0.055410821087445265,-0.39579128901908045,0.0,0.0
2.9458917835671343,0.015220706951064918,0.22129263368644161,-0.02719017312028256,-0.052082167454420264,-0.4340782306879014,0.0,0.0
2.9659318637274548,0.019484968147421327,0.2132130598178205,-0.028149428858019618,-0.04796278688685291,-0.4096664073931643,0.0,0.0
2.9859719438877756,0.023597438768227393,0.20562353104030331,-0.02904662450539329,-0.04485978236868355,-0.4897257622137878,0.0,0.0
3.006012024048096,0.02752713691821497,0.19648490749937877,-0.029840611734814435,-0.039699361471057244,-0.4609180141114327,0.0,0.0
3.0260521042084165,0.031285531424102876,0.18791972529439527,-0.030553245497731314,-0.03563168814584404,-0.3181895064878398,0.0,0.0
3.0460921843687374,0.034928519450185644,0.1821494013041385,-0.031272471347414184,-0.0359612924841436,-0.38301179533527596,0.0,0.0
3.066132264529058,0.038431013548655454,0.17512470492349044,-0.031964928237944765,-0.03462284452652906,-0.4375326754238764,0.0,0.0
3.0861723446893787,0.041771938402938094,0.1670462427141321,-0.03260311075897357,-0.03190912605144031,-0.49005691002107543,0.0,0.0
3.106212424849699,0.04493098239760345,0.15795219973326788,-0.0331603399033291,-0.02786145721777669,-0.4593592068468857,0.0,0.0
3.12625250501002,0.0479202836107218,0.14946506065591741,-0.03365807909814797,-0.024886959740943314,-0.5380969128651762,0.0,0.0
