time,x,x_dot,theta,theta_dot,u,x_ref,theta_ref
0.0,1.2200116949815207,0.061588157947298744,0.006130224416856789,-0.04283972398237168,9.119853344345845,0.0,0.0
0.02004008016032064,1.2248004959907903,0.2394400504634844,-2.2671027498125454e-05,-0.3076447722177457,9.517394656323244,0.0,0.0
0.04008016032064128,1.233303238949622,0.4251371479415831,-0.011743132971343839,-0.5860230971922856,5.908884059926512,0.0,0.0
0.06012024048096192,1.2441150462406918,0.5405903645534932,-0.02699379425957131,-0.7625330644113737,2.841633849565981,0.0,0.0
0.08016032064128256,1.2560431011302713,0.5964027444789725,-0.04407577661398663,-0.8540991177207659,1.2486429496420213,0.0,0.0
0.1002004008016032,1.2684703284423795,0.6213613656054124,-0.06216424303266155,-0.9044233209337457,-1.544723658222316,0.0,0.0
0.12024048096192384,1.2803117108526454,0.5920691205132897,-0.07974124953753087,-0.8788503252434661,2.3948667541078024,0.0,0.0
0.1402805611222445,1.2931087488909405,0.6398519019147509,-0.09921438109707062,-0.9736565779769875,-5.477315567623324,0.0,0.0
0.16032064128256512,1.303796329080989,0.5343790095024262,-0.11612291326223104,-0.8454266082580209,-3.1094976575207562,0.0,0.0
0.18036072144288576,1.3133030322992025,0.4753351609106752,-0.1319540018553898,-0.7915544296579379,-4.40732280655546,0.0,0.0
0.2004008016032064,1.3211277892225146,0.39123784616560753,-0.14605882230775416,-0.7052410226182174,-3.1638484226711237,0.0,0.0
0.22044088176352705,1.327759638283083,0.3315924530284176,-0.15924968022337613,-0.6595428957810979,-3.619047952632882,0.0,0.0
0.24048096192384769,1.3330252857352736,0.26328237260952947,-0.17135028315452316,-0.6050301465573518,-4.208605264489151,0.0,0.0
0.2605210420841683,1.3366989519608672,0.18368331127967655,-0.18210134505910622,-0.5375530952291523,-4.500368721379327,0.0,0.0
0.280561122244489,1.3386705683260776,0.09858081826051424,-0.1914072974880391,-0.46529762144664466,-4.629656260008016,0.0,0.0
0.3006012024048096,1.3388929318725526,0.011118177323757292,-0.19925681479813384,-0.3924758655047371,-4.165719235038268,0.0,0.0
0.32064128256513025,1.3375492295648412,-0.0671851153855656,-0.205968316481776,-0.33557508418210813,-5.246721103480845,0.0,0.0
0.3406813627254509,1.3342211222348859,-0.166405366497765,-0.21096974358593293,-0.250071355207847,-4.415224524435053,0.0,0.0
0.3607214428857715,1.3292338371888526,-0.2493642523016701,-0.21476965569954226,-0.18999560568046597,-4.796387993204454,0.0,0.0
0.3807615230460922,1.3224404103746394,-0.3396713407106604,-0.2171766281270858,-0.12034862137717614,-4.767299373973809,0.0,0.0
0.4008016032064128,1.3138530005042353,-0.4293704935202117,-0.21822367152115,-0.052352169703209994,-4.694977274254266,0.0,0.0
0.42084168336673344,1.3035001112233673,-0.5176444640433948,-0.21795911698576267,0.01322772676936601,-4.683774561801952,0.0,0.0
0.4408817635270541,1.2913860271520425,-0.6057042035662387,-0.2163875662003846,0.07857753926890396,-4.358661424464197,0.0,0.0
0.4609218436873747,1.2776366725251744,-0.6874677313434107,-0.21368347331734308,0.13520464415207556,-3.969352350527363,0.0,0.0
0.48096192384769537,1.262402581802231,-0.7617045361471679,-0.21005042804182403,0.18165226377595264,-3.9066878910253457,0.0,0.0
0.501002004008016,1.2457069644579857,-0.8347808672122661,-0.20549988613499892,0.22752709534125515,-3.5033613775715846,0.0,0.0
0.5210420841683366,1.2277052741681183,-0.9000845144933759,-0.20023175725779463,0.2634064438602146,-2.992087599952799,0.0,0.0
0.5410821643286573,1.2085948034246716,-0.9555235371723344,-0.19450348579631244,0.2864135730741095,-2.8076617561832675,0.0,0.0
0.561122244488978,1.1884455943135732,-1.0074604555549223,-0.18838321475168635,0.3060135522313042,-2.7384199098266273,0.0,0.0
0.5811623246492986,1.167282768646802,-1.058141283338569,-0.18187081609789527,0.32561993268955364,-2.7447447922632313,0.0,0.0
0.6012024048096192,1.1451019219737206,-1.1090423336540656,-0.1749203597066011,0.3475228195647073,-2.392257163543966,0.0,0.0
0.6212424849699398,1.1220382214218816,-1.1531850275919489,-0.16768930058027226,0.3615529563164418,-3.929672227945063,0.0,0.0
0.6412825651302605,1.0974908268052284,-1.2273697308326568,-0.15924607399642748,0.4221613291922385,-4.166835907623438,0.0,0.0
0.6613226452905812,1.071364653702521,-1.306308655135369,-0.14939793622905964,0.4924068883683923,-3.8850944422731604,0.0,0.0
0.6813627254509018,1.0437662848296352,-1.3799184436442877,-0.13824211625471128,0.5577909987174186,-3.076403128034946,0.0,0.0
0.7014028056112224,1.0150073206405095,-1.4379482094562863,-0.12617285975510936,0.603462824980096,-2.2042446321023856,0.0,0.0
0.721442885771543,0.9854240462797824,-1.47916371803635,-0.11361720049408486,0.6277829630512254,-2.510480173360558,0.0,0.0
0.7414829659318637,0.9548934230453638,-1.5265311617209314,-0.10031677816871391,0.6650211162685474,-1.7000200084691517,0.0,0.0
0.7615230460921844,0.9237275713596205,-1.558292584287167,-0.0866574017489697,0.6829688209872109,-2.107360412921389,0.0,0.0
0.781563126252505,0.8917637371604104,-1.598191709960503,-0.07231487807722639,0.7171261835871655,-1.1699598735755146,0.0,0.0
0.8016032064128256,0.8593634516730784,-1.6200142743665973,-0.057744371990731735,0.728525304324733,-1.6811235331194725,0.0,0.0
0.8216432865731462,0.8263232210760901,-1.6520115298494118,-0.042555283036206044,0.7594544477262846,-0.2401424555591969,0.0,0.0
0.8416833667334669,0.7932009959283329,-1.6561112573878616,-0.027493383658212727,0.7530949688996659,-0.3018287134056914,0.0,0.0
0.8617234468937875,0.7599685678888031,-1.6616214019764943,-0.01242788539400788,0.7532749132102423,-0.02948727767505588,0.0,0.0
0.8817635270541082,0.7267280575736513,-1.6620255157575845,0.002576699333351801,0.750229236367984,0.2843203536767298,0.0,0.0
0.9018036072144289,0.693597786141299,-1.656513571617616,0.017431171081377123,0.742723587401266,0.6850155993804938,0.0,0.0
0.9218436873747494,0.6607300120198525,-1.6433887060723218,0.03199462865997751,0.7281728789300191,1.0449768527179302,0.0,0.0
0.9418837675350701,0.6282611516169274,-1.6234430201462562,0.04614837428922574,0.7076872814624116,1.2693929373431974,0.0,0.0
0.9619238476953907,0.5962748080692635,-1.5993171773831962,0.059850653503235866,0.6851139607005065,1.7592296362968778,0.0,0.0
0.9819639278557114,0.5649582198917201,-1.5658294088771667,0.07290221694774059,0.652578172225236,2.0410752553846705,0.0,0.0
1.002004008016032,0.5344175941618248,-1.527031286494765,0.08522167137414964,0.615972721320453,2.443631889522144,0.0,0.0
1.0220440881763526,0.504806365473002,-1.480561434441142,0.09665314172238602,0.571573517411819,4.164975709220636,0.0,0.0
1.0420841683366733,0.47679241417090545,-1.400697565104824,0.10626844953051767,0.48076539040658245,3.791506772384879,0.0,0.0
1.062124248496994,0.4502270626264683,-1.3282675772218593,0.11434775848019942,0.4039654474840872,3.5144591557097176,0.0,0.0
1.0821643286573146,0.4249997428929917,-1.26136598667383,0.12110485382809416,0.33785476739473724,3.278549758467193,0.0,0.0
1.1022044088176353,0.40101636554817754,-1.1991688672407068,0.12672077238669688,0.28079592793013547,2.8839677332669824,0.0,0.0
1.122244488977956,0.3781213756010487,-1.144749497356442,0.1314608733611097,0.2370050487206419,2.6855263040576958,0.0,0.0
1.1422845691382766,0.3562359743073093,-1.0942700646869685,0.13547087997838397,0.20050033086371305,2.558192209628487,0.0,0.0
1.1623246492985972,0.33530931587934826,-1.046332921398052,0.13885047705139159,0.16897985365037999,2.5606686474496265,0.0,0.0
1.1823647294589177,0.31534134126986746,-0.9983987304740396,0.14162008946678648,0.13848062076974463,2.393886369254061,0.0,0.0
1.2024048096192383,0.2962662226905574,-0.9537559289655035,0.14389408103106308,0.11369957821383044,2.5075241352645135,0.0,0.0
1.222444889779559,0.27812755513109055,-0.906933377973344,0.14562143531458754,0.08636771417622371,3.2252926212374895,0.0,0.0
1.2424849699398797,0.26120447745070013,-0.8461538840195199,0.14639852855580907,0.03885466206107582,3.591560872491138,0.0,0.0
1.2625250501002003,0.24563944538398452,-0.778251603335781,0.14601881888591808,-0.018985483494548414,3.155054058437072,0.0,0.0
1.282565130260521,0.23126249751050676,-0.7188473936738877,0.14473205773251344,-0.06433805767023223,2.5943827447798586,0.0,0.0
1.3026052104208417,0.21785557297211683,-0.6703462269194965,0.14285390068141363,-0.09390785255499078,1.596837178133875,0.0,0.0
1.3226452905811623,0.20503054559538683,-0.6412513688364995,0.14094893259545452,-0.09524840429795593,1.0028802264071306,0.0,0.0
1.342685370741483,0.19255651835654963,-0.6237013619418592,0.1393485334548637,-0.08001995702954122,1.6954941687656457,0.0,0.0
1.3627254509018036,0.18070383057994907,-0.5926343888300285,0.13764194593500229,-0.08532937599307129,1.1406445773208391,0.0,0.0
1.3827655310621243,0.16925675632395587,-0.5723537127996603,0.13613934644883724,-0.07512997430825279,1.4770162209802535,0.0,0.0
1.4028056112224447,0.15834680161300776,-0.5454977355474059,0.13463655135717686,-0.07513975458301868,0.29235773827885203,0.0,0.0
1.4228456913827654,0.1475127202001161,-0.5417040706445836,0.13380982707648031,-0.04133621403482774,3.252226372623068,0.0,0.0
1.442885771543086,0.13790824781042504,-0.4802236194845528,0.1319402845035563,-0.09347712864620082,3.229616929155015,0.0,0.0
1.4629258517034067,0.12952515126546904,-0.41915482724779973,0.12902881267130803,-0.1455735916124133,2.912586939010103,0.0,0.0
1.4829659318637274,0.1222407698348724,-0.3642190715298316,0.1252401023389155,-0.18943551661962688,2.708338991075222,0.0,0.0
1.503006012024048,0.11597665204102117,-0.31320588969256186,0.12066796090371185,-0.22860707176018244,2.377838390292366,0.0,0.0
1.5230460921843687,0.11060535240264442,-0.2685649819188374,0.11547452578666512,-0.25967175585233676,2.094592437968707,0.0,0.0
1.5430861723446894,0.10601800211827812,-0.22936751421831464,0.10979078670468811,-0.28418695409884975,1.5915122446887207,0.0,0.0
1.56312625250501,0.10202013874424036,-0.19989316870188809,0.10387256137955864,-0.2959112662564738,1.3297767729878907,0.0,0.0
1.5831663326653307,0.09851142153224925,-0.17543586059955582,0.097834319433285,-0.3019120973136823,1.0193353450558371,0.0,0.0
1.6032064128256511,0.09537252691616778,-0.15694473080407323,0.09181833093997777,-0.3007994246653612,0.6923936667454793,0.0,0.0
1.6232464929859718,0.09247766335187464,-0.14474317821465693,0.08597686221078256,-0.29207343645976025,0.37898976346956825,0.0,0.0
1.6432865731462925,0.08970624495704337,-0.1385709197415638,0.08045563088754427,-0.27606156616191424,0.39011401964522957,0.0,0.0
1.6633266533066131,0.0870641554741251,-0.13210447414591314,0.0752134282276793,-0.2621101329932486,0.36377085356469563,0.0,0.0
1.6833667334669338,0.08454259208704593,-0.1260781693539587,0.07023262227636914,-0.24904029756550772,0.32098137352530204,0.0,0.0
1.7034068136272544,0.08212626588964786,-0.12081630986990323,0.06550681872583075,-0.23629017752691955,0.2827389956590431,0.0,0.0
1.723446893787575,0.0798015914030619,-0.11623372432929811,0.06102858241809607,-0.22391181538673421,0.24127005799803264,0.0,0.0
1.7434869739478958,0.0775536559243832,-0.11239677393393482,0.056793925007180855,-0.21173287054576073,0.19905055541100894,0.0,0.0
1.7635270541082164,0.07536718607387412,-0.1093234925254537,0.05280083560956388,-0.19965446988084856,0.19906702449666971,0.0,0.0
1.783567134268537,0.07324331910268858,-0.10619334855927702,0.04902416217447822,-0.1888336717542832,0.16659200181485115,0.0,0.0
1.8036072144288577,0.07117045617620008,-0.10364314632442549,0.04545908896072916,-0.1782536606874531,0.14469276792802033,0.0,0.0
1.8236472945891782,0.06914106543496326,-0.10146953706184096,0.04209595601116262,-0.1681566474783268,-0.09176928753808641,0.0,0.0
1.8436873747494988,0.06706384132876039,-0.10386120531014342,0.03905176133177961,-0.15220973396915083,-0.12151513822387644,0.0,0.0
1.8637274549098195,0.06492804072186766,-0.10679003034463676,0.03632473218154769,-0.1363514575115959,-0.06877595696467681,0.0,0.0
1.8837675350701402,0.06275501585140873,-0.10865124352294647,0.033866876816368394,-0.1228927682589648,0.005390122175616463,0.0,0.0
1.9038076152304608,0.060574404881540936,-0.10903054849338988,0.03161936178308573,-0.11237575166413341,-0.028499870769209013,0.0,0.0
1.9238476953907815,0.05837362454302201,-0.11003901692594642,0.029587841552079282,-0.10157601155032224,0.024573703309391702,0.0,0.0
1.9438877755511021,0.056173963366370996,-0.1099830588325505,0.02772848683468521,-0.09296773586970358,0.02622683879057211,0.0,0.0
1.9639278557114228,0.05397659719507958,-0.10986830856457101,0.026028613866701567,-0.08499364839918218,0.035724245181735434,0.0,0.0
1.9839679358717435,0.05178571750768762,-0.10954398436959796,0.02447195592788992,-0.07783289694058232,0.03051722844280104,0.0,0.0
2.004008016032064,0.04959973734802576,-0.10929900798309324,0.023051746356520422,-0.07101047856847495,0.08757729564590172,0.0,0.0
2.024048096192385,0.04744132818553418,-0.10792045812457894,0.021725664711599542,-0.06630408224604403,-0.10100371607215194,0.0,0.0
2.0440881763527052,0.045237282758079436,-0.11020227137273735,0.02059563563573307,-0.056501453793323435,0.00909908204729415,0.0,0.0
2.064128256513026,0.04303088758310652,-0.1103197587486459,0.019590146372434055,-0.05027446316495085,-0.008861391650909864,0.0,0.0
2.0841683366733466,0.040815421858185416,-0.11077328624605509,0.01871336257543397,-0.043839189850004234,-0.005865675117495742,0.0,0.0
2.1042084168336674,0.03859230540134054,-0.11115582284224386,0.017958005125393656,-0.03776787250201562,0.006832451075675446,0.0,0.0
2.124248496993988,0.03636670938090754,-0.11127980102164998,0.017311885542137365,-0.03230597916281455,0.03391354424788714,0.0,0.0
2.1442885771543083,0.03414938624498598,-0.11086615679607795,0.016755091465607826,-0.0278397038264769,0.10589647762158538,0.0,0.0
2.164328657314629,0.03196858444830141,-0.10904008983422854,0.01624201107679745,-0.025654019440518764,0.12421714159869805,0.0,0.0
2.1843687374749496,0.02983160003895337,-0.10684922046740201,0.015758693500590733,-0.024165878810335828,0.13788041350433192,0.0,0.0
2.2044088176352705,0.027743903168807458,-0.10438484350729567,0.015294099375794732,-0.023229706239800026,0.13995408253506614,0.0,0.0
2.224448897795591,0.025706436160578335,-0.10187335041145623,0.01484408595542662,-0.02250067101840559,0.10578475993696149,0.0,0.0
2.244488977955912,0.023705994433938518,-0.10002208633199083,0.014425800921147107,-0.02091425171397562,0.0568811457249004,0.0,0.0
2.2645290581162323,0.02172361466659041,-0.09911898836740539,0.014065210475259458,-0.018029522294382413,0.12044018701289265,0.0,0.0
2.284569138276553,0.019784202189324418,-0.09697062386329952,0.013722864777094465,-0.017117284908249687,0.13833864409392932,0.0,0.0
2.3046092184368736,0.017894839459340037,-0.09446813649921908,0.013386135928628593,-0.016836442423293563,0.1805600462208865,0.0,0.0
2.3246492985971945,0.016072098663717747,-0.09113703978111447,0.013028204512121867,-0.01789657082533628,0.08283030387176842,0.0,0.0
2.344689378757515,0.014277946195435789,-0.08970762341409788,0.012703976854460222,-0.016211382883082284,0.06857754347073938,0.0,0.0
2.3647294589178354,0.012506913226425987,-0.08855164845049013,0.012419745123477061,-0.01421158654915801,0.09416552483588557,0.0,0.0
2.3847695390781563,0.01076906618200051,-0.08689235222127388,0.01215875004576705,-0.013049753885500623,0.09664032815518188,0.0,0.0
2.4048096192384767,0.009065445578955444,-0.08518103015225321,0.011917898200065013,-0.01204259228510179,0.17733657464240024,0.0,0.0
2.4248496993987976,0.0074276098933801216,-0.08189178427876614,0.011648469429047834,-0.013471438550858993,0.06396346213081996,0.0,0.0
2.444889779559118,0.0058113956644058875,-0.0808107114487117,0.011415079600395688,-0.011669491432607319,0.025104608385089017,0.0,0.0
2.464929859719439,0.004201706176133327,-0.08048447441362802,0.011238986698132608,-0.008804645113153941,0.024182168594950038,0.0,0.0
2.4849699398797593,0.002598231921733639,-0.0801737127199844,0.011119619930563174,-0.005968338378471707,0.0771284438510408,0.0,0.0
2.50501002004008,0.0010216679292322374,-0.07882819962507008,0.011025256656247952,-0.0047181637157610555,0.08108840212119454,0.0,0.0
2.5250501002004007,-0.0005264134938537267,-0.0774040711542982,0.010952985512639332,-0.0036135571804310224,0.10608708348983005,0.0,0.0
2.5450901803607215,-0.002036236584252329,-0.07549115451993012,0.010887728195747785,-0.003262865844577319,0.09300371585999595,0.0,0.0
2.565130260521042,-0.0035128880648191262,-0.07383257402833984,0.010836726080717327,-0.00255010575152291,0.11047222034132106,0.0,0.0
2.5851703406813624,-0.0049495367109512614,-0.07183243230660676,0.010789439617213941,-0.0023643231751692985,0.15112513178780346,0.0,0.0
2.6052104208416833,-0.0063303052783387735,-0.06903842836937558,0.010721791314586308,-0.003382415131381626,0.17759521635232448,0.0,0.0
2.6252505010020037,-0.007644845143767806,-0.06572699327145161,0.010617871263933603,-0.005196002532635203,0.04743738294691488,0.0,0.0
2.6452905811623246,-0.008943917073843254,-0.06495359650377242,0.010553158023792884,-0.0032356620070359632,0.022251134506749506,0.0,0.0
2.665330661322645,-0.010237330776211261,-0.06467068511840039,0.010541975875164467,-0.000559107431420841,0.06082852603631242,0.0,0.0
2.685370741482966,-0.011510029266907711,-0.06363492453482247,0.010561688996100459,0.0009856560467995455,0.059350198299046475,0.0,0.0
2.7054108216432864,-0.012762595072947315,-0.06262829030198015,0.01061328642340156,0.002579871365055061,0.09171682712713917,0.0,0.0
2.7254509018036073,-0.013982412782782675,-0.060990885491767975,0.01067816112726305,0.003243735193074492,0.11651977099546795,0.0,0.0
2.7454909819639277,-0.015159822315464602,-0.058870476634096315,0.010742214099805622,0.0032026486271286747,0.12430271799139174,0.0,0.0
2.7655310621242486,-0.016291804947698413,-0.05659913161169051,0.010801296763720871,0.0029541331957624642,0.13058354636537983,0.0,0.0
2.785571142284569,-0.01737592669317478,-0.05420608727381839,0.010852107845089588,0.002540554068435882,0.1714798352055895,0.0,0.0
2.8056112224448895,-0.018396243456449378,-0.05101583816372984,0.010871046150899117,0.0009469152904764007,0.1607929506124325,0.0,0.0
2.8256513026052104,-0.019356930932626363,-0.04803437380884931,0.010864482242453132,-0.0003281954222991853,0.07950035130721626,0.0,0.0
2.845691382765531,-0.02028970945784167,-0.04663892626076529,0.010879925522594197,0.0007721640070532511,0.09191610928403642,0.0,0.0
2.8657314629258517,-0.021189738547726683,-0.04500145449425072,0.010910210980782169,0.0015142729093985748,0.09762094406225717,0.0,0.0
2.885771543086172,-0.022054800726428913,-0.04325310893511157,0.010952192651562715,0.0020990835390272767,0.12094440701190196,0.0,0.0
2.905811623246493,-0.022875806682949248,-0.041050297826016796,0.010992492608879002,0.002014997865814342,0.1358020761333121,0.0,0.0
2.9258517034068134,-0.023646970170209263,-0.038558174363000755,0.01102267425807094,0.0015090824595968616,0.1467400264309178,0.0,0.0
2.9458917835671343,-0.024364031604599098,-0.035853071719491696,0.011036529973821844,0.0006927857875452705,0.14546441712300018,0.0,0.0
2.9659318637274548,-0.025027492729844655,-0.033173056262277914,0.011034893283984841,-8.183449185017878e-05,0.14969073344938919,0.0,0.0
2.9859719438877756,-0.02563570387277099,-0.030410557146316675,0.01101528175637283,-0.0009805763806005601,0.1740461962061497,0.0,0.0
3.006012024048096,-0.026179155359309363,-0.027172574326918563,0.010963325399828142,-0.002597817827234432,0.1717059634453188,0.0,0.0
3.0260521042084165,-0.02665874550573132,-0.023979507321097895,0.010880065416636315,-0.0041629991595913155,0.11996572165677524,0.0,0.0
3.0460921843687374,-0.027094640658164682,-0.021794757621668194,0.010795241321795605,-0.0042412047420355295,0.127502319107617,0.0,0.0
3.066132264529058,-0.027483875551090817,-0.019461744646306713,0.010703909769151516,-0.004566577632204466,0.12606719085442325,0.0,0.0
3.0861723446893787,-0.027826984024273915,-0.017155423659154893,0.010606334240586214,-0.0048787764282650515,0.1337918480686345,0.0,0.0
3.106212424849699,-0.02812092377013715,-0.014696987293161741,0.010497380956553379,-0.005447664201641814,0.1379245049241802,0.0,0.0
