time,x,x_dot,theta,theta_dot,u,x_ref,theta_ref
0.0,0.9166760890065095,0.04677792064908767,0.019318427630112517,-0.0020402897646914775,7.837276796336866,0.0,0.0
0.02004008016032064,0.9206643378345123,0.19941244140013553,0.014815814556200381,-0.22513065369560684,9.423508886989561,0.0,0.0
0.04008016032064128,0.9283255950421986,0.3830628603843145,0.0048947939009511415,-0.496051032762462,5.335347481766871,0.0,0.0
0.06012024048096192,0.9380674607669577,0.48709328623795245,-0.00811638951805968,-0.650559170950541,2.2934022440628157,0.0,0.0
0.08016032064128256,0.948706526843187,0.5319533038114683,-0.022520182602037697,-0.7201896541989008,0.27619529123324815,0.0,0.0
0.1002004008016032,0.9594595923458265,0.5376532751319724,-0.03722714946311359,-0.7353483430537945,-6.913196561799335,0.0,0.0
0.12024048096192384,0.9675254886691702,0.4032948161671889,-0.048127379557248474,-0.5450115047067442,2.7918041326386422,0.0,0.0
0.1402805611222445,0.9766941280939491,0.45843197123894525,-0.06096148009628223,-0.641705026951688,-3.0809516256057874,0.0,0.0
0.16032064128256512,0.9846777625646457,0.3991817235348308,-0.07238049101368754,-0.5709505458702653,1.659033490472078,0.0,0.0
0.18036072144288576,0.9933287545223295,0.4325495978841889,-0.08522225367591126,-0.6420881331111858,-6.645666903010165,0.0,0.0
0.2004008016032064,0.9994114197229165,0.3041332600293515,-0.09472809318057944,-0.47529197523340894,0.734993351230929,0.0,0.0
0.22044088176352705,1.0058072671383806,0.319792370773208,-0.10525712887899233,-0.5264517849206442,-9.588343013832876,0.0,0.0
0.24048096192384769,1.0084938671201762,0.1343299990897785,-0.11087392609393058,-0.28083986074691286,0.012298797779260795,0.0,0.0
0.2605210420841683,1.01121658456635,0.1361358723087005,-0.11719473063660171,-0.3160402271335564,0.11661494131644018,0.0,0.0
0.280561122244489,1.014017787477487,0.14006014555684052,-0.12431948202792012,-0.35623756956592006,-0.635875336577651,0.0,0.0
0.3006012024048096,1.0166060561623798,0.12941343424463997,-0.1318561567154365,-0.3768337343758187,-2.7797316454536567,0.0,0.0
0.32064128256513025,1.0181479177337536,0.07709307856868702,-0.1386104041995343,-0.33771237420489,-1.0726003290453976,0.0,0.0
0.3406813627254509,1.0193106683692925,0.058137531776944196,-0.14561370557446163,-0.35016506874636677,-3.8634280619281034,0.0,0.0
0.3607214428857715,1.019008866983285,-0.015090069300367201,-0.1512974386286587,-0.2841866527098532,-1.6271486671456445,0.0,0.0
0.3807615230460922,1.0181155634624488,-0.044665176041819084,-0.15699028719713434,-0.28464242842378235,-2.9850828617862413,0.0,0.0
0.4008016032064128,1.0161034189468383,-0.10060722578052236,-0.16194528992829585,-0.24775013655807543,-2.4196416606713775,0.0,0.0
0.42084168336673344,1.0131941915907883,-0.14546136780250346,-0.16652059401890507,-0.228765204530461,-4.898315862120265,0.0,0.0
0.4408817635270541,1.0084239366047878,-0.2385127493000214,-0.16931870378103123,-0.13990548810630787,-5.177656396132147,0.0,0.0
0.4609218436873747,1.0016848594652743,-0.33695385697567615,-0.1701978551913052,-0.043957570513699154,-4.716978959715719,0.0,0.0
0.48096192384769537,0.9931566892195783,-0.42640851228479637,-0.1694291108622717,0.03843721645167532,-4.3089301065331505,0.0,0.0
0.501002004008016,0.9829980875615839,-0.5079300828997235,-0.1672421081929664,0.10935013346526495,-3.7716342085549903,0.0,0.0
0.5210420841683366,0.971417587034742,-0.5790250263420953,-0.16393152361058802,0.16552922911891832,-3.3736271678187415,0.0,0.0
0.5410821643286573,0.9585691428333206,-0.6424222100710673,-0.15970470043493556,0.21134115878262266,-3.3038763227770813,0.0,0.0
0.561122244488978,0.9444786011314412,-0.7045270850939722,-0.15457408257555244,0.25653089296915643,-2.9194599412514712,0.0,0.0
0.5811623246492986,0.9292941127088451,-0.7592244211298081,-0.14872783680475465,0.29231228853989,-2.8774114939383852,0.0,0.0
0.6012024048096192,0.9130302742464791,-0.8131919231183022,-0.1421521944427534,0.32878211810006297,-2.614869331493334,0.0,0.0
0.6212424849699398,0.8957873831007166,-0.862144557288126,-0.13495621645698733,0.3597988992883042,-2.184370715375513,0.0,0.0
0.6412825651302605,0.8777310459402068,-0.9028168580254916,-0.1273425611452919,0.38068276558477065,-1.9743504147298994,0.0,0.0
0.6613226452905812,0.8589408798932021,-0.9395083023502351,-0.11938404308282455,0.3979259031233684,-1.9222188121413337,0.0,0.0
0.6813627254509018,0.839434884136891,-0.9752997878155547,-0.11105996351217952,0.41620397853225116,-1.5473958029601995,0.0,0.0
0.7014028056112224,0.819356766262124,-1.0039058937383547,-0.10253480451322633,0.4262579499476598,-1.3792812398240042,0.0,0.0
0.721442885771543,0.7987696286820823,-1.0293568790020824,-0.09385207334182118,0.43413655857025735,-1.306788264118683,0.0,0.0
0.7414829659318637,0.7776992577431152,-1.0535185469483557,-0.08499882908887718,0.4426622126472,-1.223601995749526,0.0,0.0
0.7615230460921844,0.7561755663682211,-1.0761845687447036,-0.07596736197000922,0.45157335594339765,-1.1093542941866383,0.0,0.0
0.781563126252505,0.7342405386905109,-1.0967513838855156,-0.06676703402745912,0.46001639712750536,-1.0319273575422085,0.0,0.0
0.8016032064128256,0.7119217565716331,-1.115939105943884,-0.057384769234417723,0.46911323965206986,-0.8956220498430056,0.0,0.0
0.8216432865731462,0.6892697257858684,-1.1326015392882376,-0.0478407926131778,0.47719883106199606,-0.6140165953923218,0.0,0.0
0.8416833667334669,0.6663916070749197,-1.1439059355474337,-0.03823930463489186,0.48007439891429704,-0.4969172873229958,0.0,0.0
0.8617234468937875,0.6433303760597294,-1.153061550759518,-0.02858817233803594,0.48255661484279616,-0.3182517473129778,0.0,0.0
0.8817635270541082,0.6201530219482229,-1.158867705575329,-0.01893100589925504,0.48285832193904504,-0.19058411009336085,0.0,0.0
0.9018036072144289,0.5969066376742345,-1.1623192136994205,-0.00928161557649886,0.4824695161378089,0.015154801526932465,0.0,0.0
0.9218436873747494,0.5736687852924263,-1.1618926190904073,0.00030044442470160936,0.4791030000600235,0.15327932805250247,0.0,0.0
0.9418837675350701,0.5504906617267863,-1.1589061782819983,0.009794732676227672,0.4747144125763031,0.3851369903043014,0.0,0.0
0.9619238476953907,0.5274600633324792,-1.151529919715355,0.019125438131994202,0.46653527278832657,0.6275515687674512,0.0,0.0
0.9819639278557114,0.5046689460087428,-1.139555866186821,0.028209592493311925,0.45420771806588617,0.7776762178635257,0.0,0.0
1.002004008016032,0.4821733129402653,-1.1247816534238766,0.03701672036224394,0.4403563934466006,0.9923270237875004,0.0,0.0
1.0220440881763526,0.46005441336396763,-1.105944978814883,0.045476960526176426,0.4230120081966243,3.493190072674609,0.0,0.0
1.0420841683366733,0.43928558489364516,-1.0384414235161223,0.052182596778995886,0.33528181264097306,3.1726553706346188,0.0,0.0
1.062124248496994,0.4197397500384631,-0.977291742759103,0.057363886874389446,0.2590645047696781,2.7545713255945747,0.0,0.0
1.0821643286573146,0.40125223486185563,-0.9243757588303719,0.061298202685076006,0.19671579053432803,2.010779745198665,0.0,0.0
1.1022044088176353,0.3835316877956542,-0.8860273533100712,0.06444492704723942,0.1573362181081708,1.4462391666740337,0.0,0.0
1.122244488977956,0.366356945336029,-0.8587371229812594,0.06715359173338284,0.13543323430717116,0.8089388757128427,0.0,0.0
1.1422845691382766,0.3494786074476479,-0.8439168944190553,0.06981324872327423,0.13298284949456907,1.2482937373255902,0.0,0.0
1.1623246492985972,0.3330672981092953,-0.8205654669176309,0.07218441821068049,0.11855847437031271,1.3587308105828197,0.0,0.0
1.1823647294589177,0.31716540804970195,-0.7950945029796694,0.07421773572863104,0.1016658758975276,0.9134302632816337,0.0,0.0
1.2024048096192383,0.30159864699431244,-0.778338052769475,0.07618578414556977,0.09840242084693648,1.4916144634832242,0.0,0.0
1.222444889779559,0.28659197665003,-0.7503335172141218,0.07776391638164737,0.07890661180387973,1.4163568378735532,0.0,0.0
1.2424849699398797,0.2721155808330169,-0.7238197908506538,0.07900604175382475,0.062106268608868864,1.2382888123816473,0.0,0.0
1.2625250501002003,0.2580996418678416,-0.7007969482587638,0.08002384892640611,0.05089035862906817,1.264017156259027,0.0,0.0
1.282565130260521,0.24455389968692057,-0.6772871090460527,0.08080880172570476,0.03924763996493213,1.2572885173926593,0.0,0.0
1.3026052104208417,0.2314755019310473,-0.6539198877936641,0.08136980424248863,0.028050125839193453,1.2483954163585802,0.0,0.0
1.3226452905811623,0.21886081706689334,-0.6307342432076976,0.08171559999926419,0.017289787838777576,1.220493359719207,0.0,0.0
1.342685370741483,0.20669886185733577,-0.6080977604778779,0.08186464345761073,0.00745217291732733,1.1902383934467393,0.0,0.0
1.3627254509018036,0.1949777924748912,-0.5860534691222283,0.08183551096536085,-0.0014566246124938752,1.1303853560058972,0.0,0.0
1.3827655310621243,0.18367427241314935,-0.5651760030870927,0.08166289614893975,-0.008630740821054661,1.1176583568816782,0.0,0.0
1.4028056112224447,0.1727833874472874,-0.5445442482930972,0.08135312141484469,-0.015488736704753103,1.094727474569566,0.0,0.0
1.4228456913827654,0.16229628301938262,-0.5243552213952397,0.0809175865086082,-0.02177674531182455,0.926014578627945,0.0,0.0
1.442885771543086,0.15214727998189126,-0.5074501518745678,0.08045185416759079,-0.023286617050870366,0.7982348883202898,0.0,0.0
1.4629258517034067,0.142286672556884,-0.49303037125036414,0.08002744856174829,-0.021220280292125502,0.9308074304102637,0.0,0.0
1.4829659318637274,0.1327662911551903,-0.4760190700846841,0.0795644206753303,-0.02315139432089908,0.9259800196546837,0.0,0.0
1.503006012024048,0.12358438579737767,-0.4590952678906323,0.07906265446923744,-0.025088310304643077,0.9578031810949692,0.0,0.0
1.5230460921843687,0.11475351310271006,-0.4415436347333803,0.07850042613448881,-0.02811141673743172,1.0465494807356268,0.0,0.0
1.5430861723446894,0.10630845021513972,-0.4222531443785171,0.07782244621217631,-0.03389899611562485,1.1682448197937552,0.0,0.0
1.56312625250501,0.09829686023953665,-0.40057949878015314,0.07695347846934654,-0.04344838714148858,1.0866624979309023,0.0,0.0
1.5831663326653307,0.09068717270606659,-0.3804843766735034,0.07593557426243974,-0.05089521034534011,1.0402665464566254,0.0,0.0
1.6032064128256511,0.08346158412097858,-0.3612794292544005,0.07478933433855818,-0.05731199619407787,0.9953985333986083,0.0,0.0
1.6232464929859718,0.0766029234440636,-0.34293303384574947,0.07353366096129675,-0.06278366886307143,0.7309568335093504,0.0,0.0
1.6432865731462925,0.07000840100968814,-0.3297261217187725,0.07231481627864206,-0.06094223413273442,0.7551015144860067,0.0,0.0
1.6633266533066131,0.06368778363685926,-0.31603086864144375,0.0711110190214642,-0.06018986285889252,0.7723758231248438,0.0,0.0
1.6833667334669338,0.057648154339139834,-0.30198146488597105,0.06990458700010622,-0.06032160106789907,0.7920264473367201,0.0,0.0
1.7034068136272544,0.051897524240339506,-0.28753150494001645,0.06867643279021039,-0.06140771049479192,0.8015746145913534,0.0,0.0
1.723446893787575,0.04643997021502636,-0.27287770126565714,0.06741322275080285,-0.06316050197037704,0.8105877411559007,0.0,0.0
1.7434869739478958,0.04127937073507435,-0.25802997399760064,0.06610171242268997,-0.06557551640564364,0.8174517060126107,0.0,0.0
1.7635270541082164,0.03641877999545308,-0.24302953698106344,0.06472960473152424,-0.0686053845582868,0.8418917583638619,0.0,0.0
1.783567134268537,0.031868126364702515,-0.22753268153752812,0.06327396154964364,-0.07278215909402996,0.8674037572445468,0.0,0.0
1.8036072144288577,0.027637780891669704,-0.2115172736516405,0.06171068755432022,-0.07816369976617078,0.8219110047058711,0.0,0.0
1.8236472945891782,0.02371044590626162,-0.19636674927040407,0.060056448431208775,-0.08271195615557247,0.6937590226628904,0.0,0.0
1.8436873747494988,0.020036601975761844,-0.18369219652498883,0.05837559454520621,-0.08404269430012819,0.7407993060781943,0.0,0.0
1.8637274549098195,0.01663508288702238,-0.1700759544369731,0.05663004321849274,-0.08727756633567325,0.7250064265367413,0.0,0.0
1.8837675350701402,0.013500228567332087,-0.15674271598451472,0.05481798422638434,-0.09060294960541998,0.6947092627457184,0.0,0.0
1.9038076152304608,0.010620739227728916,-0.14397446698015853,0.05294565915475359,-0.09361625358153762,0.6934130613020832,0.0,0.0
1.9238476953907815,0.00799664664826925,-0.13120462897298324,0.05100199540357786,-0.09718318755878669,0.6612671677941093,0.0,0.0
1.9438877755511021,0.0056159671704622775,-0.11903397389034863,0.04899348903553788,-0.1004253184019989,0.5907090766626796,0.0,0.0
1.9639278557114228,0.0034517485619668512,-0.1082109304247713,0.046948670148535085,-0.1022409443501396,0.5463805496927528,0.0,0.0
1.9839679358717435,0.0014872818273929085,-0.09822333672869712,0.044880524963500194,-0.10340725925174443,0.4402618043053536,0.0,0.0
2.004008016032064,-0.00031824445958864175,-0.09027631434907751,0.042838002066181824,-0.10212614486591866,0.36945154058776675,0.0,0.0
2.024048096192385,-0.00199187403797873,-0.0836814789195044,0.040849592209427,-0.09942049283774128,0.3086842310628398,0.0,0.0
2.0440881763527052,-0.003556748352923394,-0.0782437157472332,0.03893826617603492,-0.09556630166960398,0.2564393887974484,0.0,0.0
2.064128256513026,-0.005032706119612686,-0.07379788833446459,0.03712250584211572,-0.09078801669596037,0.2584738977725908,0.0,0.0
2.0841683366733466,-0.006418434663837363,-0.06928642721123389,0.03538967329443176,-0.08664162738419799,0.2424040204141489,0.0,0.0
2.1042084168336674,-0.007719708911645932,-0.06506371239042842,0.03373823559691903,-0.08257188487563637,0.24259219608086896,0.0,0.0
2.124248496993988,-0.0089359832355518,-0.06081371619529342,0.032157669468836,-0.07902830640415189,0.22703019752953585,0.0,0.0
2.1442885771543083,-0.010072877765450487,-0.05684472649493437,0.030647105967219833,-0.07552817508080832,0.21578019645531502,0.0,0.0
2.164328657314629,-0.011134350100827663,-0.053073616768858786,0.02920359716539152,-0.0721754400914156,0.22942183270961583,0.0,0.0
2.1843687374749496,-0.012114664221701396,-0.049015706043686595,0.02781006445911048,-0.06967663531405198,0.21043290943923829,0.0,0.0
2.2044088176352705,-0.01302083077832101,-0.04530832783098072,0.026468822832734037,-0.06706208131882212,0.21056288977597096,0.0,0.0
2.224448897795591,-0.013852415105143522,-0.0415792163411256,0.025171338206156187,-0.06487423132889258,0.19788238316583323,0.0,0.0
2.244488977955912,-0.01461399373350575,-0.038078931418111396,0.023916843267739022,-0.06272474692085821,0.12937115209177086,0.0,0.0
2.2645290581162323,-0.015331941193187202,-0.03589737298407261,0.022737490961149926,-0.05896761532945477,0.1540229673800408,0.0,0.0
2.284569138276553,-0.015996300519326424,-0.03321796630696103,0.021611428852632973,-0.05630310542584763,0.11491892343910226,0.0,0.0
2.3046092184368736,-0.016622008175814048,-0.03128538282438129,0.020554424927113145,-0.05285019627599144,0.15528078812546936,0.0,0.0
2.3246492985971945,-0.01719301179021918,-0.028550180720256595,0.0195362095372333,-0.05091076949399242,0.10547618247544743,0.0,0.0
2.344689378757515,-0.017728454229085755,-0.026772121943328734,0.018579489733367944,-0.04783599019326773,0.13528649287404418,0.0,0.0
2.3647294589178354,-0.018216429064254813,-0.024398741758452847,0.01766079815965063,-0.045934578685865535,0.11456826941165801,0.0,0.0
2.3847695390781563,-0.018664757737083267,-0.022416433641422703,0.01678645899123174,-0.043716958420944634,0.11458046315932782,0.0,0.0
2.4048096192384767,-0.01907318503906188,-0.02042136509893082,0.015950951672507478,-0.041775365936213144,0.11741364704387411,0.0,0.0
2.4248496993987976,-0.01944036605705152,-0.018359050899481914,0.015147350475721756,-0.0401800598392861,0.02292478628895918,0.0,0.0
2.444889779559118,-0.019802941953145966,-0.01812879480472222,0.01442585408793287,-0.03607481938944433,0.04126337583807725,0.0,0.0
2.464929859719439,-0.020153550030211874,-0.01753040385329535,0.013771187151099937,-0.03273334684164665,0.05214292279141736,0.0,0.0
2.4849699398797593,-0.020487757351968096,-0.01671036608781113,0.013172858223818546,-0.029916446364069583,0.07204750640004369,0.0,0.0
2.50501002004008,-0.020797625329320245,-0.015493398867607484,0.012615452037053332,-0.027870309338260714,0.06660370354238233,0.0,0.0
2.5250501002004007,-0.02108511854633576,-0.014374660850775772,0.012098637900821182,-0.025840706811607474,0.06961326972271935,0.0,0.0
2.5450901803607215,-0.02134891452584716,-0.013189798975570047,0.011617396532195961,-0.024062068431261026,0.07844206455273181,0.0,0.0
2.565130260521042,-0.021585430181144637,-0.011825782764873867,0.011163529084961281,-0.022693372361734007,0.08172053684686476,0.0,0.0
2.5851703406813624,-0.02179325611671323,-0.01039129677842968,0.010732255805934348,-0.021563663951346606,0.07811243113762693,0.0,0.0
2.6052104208416833,-0.021973676704385235,-0.009021029383600193,0.010322967584530439,-0.02046441107019553,0.07599153924710164,0.0,0.0
2.6252505010020037,-0.02212740227053331,-0.007686278307403715,0.009934324032793181,-0.019432177586862907,0.03918778650784083,0.0,0.0
2.6452905811623246,-0.022268683115062932,-0.007064042226481203,0.009585402358081889,-0.017446083735564607,0.05626772918281324,0.0,0.0
2.665330661322645,-0.022390754259813198,-0.0061035572375133075,0.009264011553414603,-0.016069540233364293,0.06583033328477231,0.0,0.0
2.685370741482966,-0.022489792046986663,-0.004951889358673268,0.008962531359598146,-0.015074009690822843,0.0733262765405537,0.0,0.0
2.7054108216432864,-0.022562784978468815,-0.003649646574107712,0.008674675914707322,-0.01439277224454118,0.07759763076918441,0.0,0.0
2.7254509018036073,-0.02260798376793444,-0.002259939473281277,0.008396131460711387,-0.01392722269979672,0.07647043905088416,0.0,0.0
2.7454909819639277,-0.022625748437226194,-0.0008882334645877786,0.00812580081623514,-0.013516532223812385,0.0791272780410484,0.0,0.0
2.7655310621242486,-0.02261496474155076,0.0005391847837717474,0.00786042512420865,-0.013268784601324515,0.07876175261192493,0.0,0.0
2.785571142284569,-0.02257569925449148,0.001963274352963837,0.0075985447041713216,-0.013094021001866395,0.0797828327123222,0.0,0.0
2.8056112224448895,-0.022507478463475596,0.003411039550794328,0.007337910815886506,-0.013031694414240765,0.07940996419962025,0.0,0.0
2.8256513026052104,-0.022410373165116137,0.004855264917972939,0.007077097973282176,-0.013040642130216487,0.044707013963685205,0.0,0.0
2.845691382765531,-0.02229785054795282,0.005626130858165841,0.006834761172793536,-0.012116840024431997,0.0650042019444717,0.0,0.0
2.8657314629258517,-0.022161920691551314,0.006796492820075314,0.0065974992445364785,-0.011863096412852903,0.0660572778131931,0.0,0.0
2.885771543086172,-0.022002104653874484,0.007990801883841452,0.0063631999865975,-0.011714962896948917,0.06637736836781476,0.0,0.0
2.905811623246493,-0.021818210370387784,0.009194714174335003,0.00613019864337305,-0.011650067161222473,0.0668690856883979,0.0,0.0
2.9258517034068134,-0.021609979174969658,0.010411559770906314,0.005896738247343092,-0.011673019801497929,0.06522657957793414,0.0,0.0
2.9458917835671343,-0.021377985096871725,0.011599703904896754,0.005662307373500889,-0.011721543692110129,0.06336402478068226,0.0,0.0
2.9659318637274548,-0.021122887755696308,0.01275486705877079,0.005426517199595364,-0.011789508695276245,0.0610339555614488,0.0,0.0
2.9859719438877756,-0.020845528817391403,0.013867946915245134,0.005189243813191256,-0.011863669320205399,0.05835360553683907,0.0,0.0
3.006012024048096,-0.020546886211346253,0.014932130302257469,0.004950558853937043,-0.011934247962710642,0.055328613165287185,0.0,0.0
3.0260521042084165,-0.020228071950747554,0.015940713029934956,0.004710726667803635,-0.011991609306670451,0.04117594117914362,0.0,0.0
3.0460921843687374,-0.0198945400238352,0.016676596345617672,0.004476513685508122,-0.011710649114775625,0.040283991018539106,0.0,0.0
3.066132264529058,-0.019546571360049052,0.017398433189307436,0.004246964712430362,-0.011477448653888014,0.04010443158738726,0.0,0.0
3.0861723446893787,-0.019184170232375106,0.018120056383697312,0.004020737240258078,-0.011311373608614192,0.03931037178027433,0.0,0.0
