time,x,x_dot,theta,theta_dot,u,x_ref,theta_ref
0.0,-0.9863452902507892,0.005507767129285163,0.10439462350017492,0.026952212508194406,-2.1748083241422713,0.0,0.0
0.02004008016032064,-0.9871128098804699,-0.03837598148403247,0.10685453837527883,0.12299574375519588,-2.435173232727949,0.0,0.0
0.04008016032064128,-0.9888601470246612,-0.08736685720956607,0.11140160216192385,0.22735318933225107,-0.5078138554430747,0.0,0.0
0.06012024048096192,-0.9908369951287048,-0.09884240520218407,0.11694386375283725,0.27711307954566955,0.4152545087549413,0.0,0.0
0.08016032064128256,-0.9926849692284311,-0.09239870498631102,0.12297988974425163,0.30180129957071894,3.565947893980517,0.0,0.0
0.1002004008016032,-0.9931775870805017,-0.02463089260353102,0.12772034596313364,0.23702281094410044,0.38564247884692193,0.0,0.0
0.12024048096192384,-0.9935559256860198,-0.0189169302759038,0.13303937347080788,0.26595137538371255,5.498330353472228,0.0,0.0
0.1402805611222445,-0.991828883808224,0.0863520938897899,0.13600967103340678,0.14851487812994485,1.2326775943626496,0.0,0.0
0.16032064128256512,-0.9896598612129865,0.10845112976187088,0.13912030586299667,0.15553174147949558,1.940939141375921,0.0,0.0
0.18036072144288576,-0.9867737409308588,0.14430601410638905,0.1419812339340923,0.14304640355478102,2.365526673107301,0.0,0.0
0.2004008016032064,-0.9830059172791198,0.18839118258695153,0.14436526068283265,0.1192013374370178,1.8875875933389457,0.0,0.0
0.22044088176352705,-0.978543327185116,0.22312950470018664,0.1465640168212993,0.10993780692333206,1.8148163000277358,0.0,0.0
0.24048096192384769,-0.9734149639352841,0.2564181624915943,0.1486336152277531,0.10347992032268967,1.7491372312690936,0.0,0.0
0.2605210420841683,-0.9676470155952178,0.2883974170033139,0.15062521379142801,0.09957992818374664,2.328995482891753,0.0,0.0
0.280561122244489,-0.9610141522192491,0.3316431687984318,0.1522167104491379,0.07957483288549363,3.0856862383111556,0.0,0.0
0.3006012024048096,-0.9532220638761044,0.3896044171572371,0.15298157375131036,0.03824316510862234,2.89228188435328,0.0,0.0
0.32064128256513025,-0.9443463366152924,0.4437863630406006,0.153036433037894,0.002742964329181412,2.628551985071147,0.0,0.0
0.3406813627254509,-0.9344897307385865,0.4928302938352966,0.15253386432015267,-0.02512843588706591,2.9483188831434033,0.0,0.0
0.3607214428857715,-0.9235275253377316,0.5481102700427468,0.1512860425653085,-0.06239108774220848,2.8281717533225095,0.0,0.0
0.3807615230460922,-0.9115061468033032,0.6010689267214211,0.14935420781814704,-0.0965917373580736,2.909866047528881,0.0,0.0
0.4008016032064128,-0.8983931795274351,0.6556483637934053,0.1466786245863984,-0.13377916158743092,2.791214218611222,0.0,0.0
0.42084168336673344,-0.884234033808689,0.7079572859373034,0.14331043843854524,-0.168409307392658,2.968512665080335,0.0,0.0
0.4408817635270541,-0.8689586009312454,0.7637716438721819,0.13912528129306745,-0.20925785727388907,2.7624536324585547,0.0,0.0
0.4609218436873747,-0.852645892649917,0.8156354140664258,0.1342151180808241,-0.24550816061216804,2.5775116629309407,0.0,0.0
0.48096192384769537,-0.8353664911316107,0.8639700759153172,0.12865517949017788,-0.27799692953231114,2.4506584439624204,0.0,0.0
0.501002004008016,-0.817168163165206,0.9099163983202306,0.12248303304254907,-0.30860732238144084,2.3068585664941765,0.0,0.0
0.5210420841683366,-0.7981051137571805,0.9531524704012775,0.1157422779619877,-0.33703775402806807,2.0514417434696526,0.0,0.0
0.5410821643286573,-0.7782749109932814,0.9915101381949563,0.10853782791097094,-0.36022250255083843,1.884085882011484,0.0,0.0
0.561122244488978,-0.7577406858197884,1.0267112586746512,0.10092076641750197,-0.38085307467344837,1.707156878987534,0.0,0.0
0.5811623246492986,-0.7365692029923144,1.0585741413736969,0.0929453134588015,-0.39877264793502365,1.5460479597103538,0.0,0.0
0.6012024048096192,-0.7148209756548273,1.0874113668743597,0.08465440690596122,-0.4145453276420137,1.387328792807089,0.0,0.0
0.6212424849699398,-0.6925555126697599,1.113273149253371,0.07608777117285334,-0.4283317866553939,1.463705860519297,0.0,0.0
0.6412825651302605,-0.669740559052324,1.1407476808717938,0.06714648292367886,-0.4470644124587237,1.0236642535972713,0.0,0.0
0.6613226452905812,-0.6465451973997588,1.15976808262826,0.058030502367597096,-0.45579902780408843,1.4291383773140165,0.0,0.0
0.6813627254509018,-0.6228086430872498,1.18682771562545,0.04844542036666251,-0.47925410004672925,0.16294673320623065,0.0,0.0
0.7014028056112224,-0.5990221587869659,1.1893242150141972,0.03907014778312377,-0.46876362917693715,1.4365797328992016,0.0,0.0
0.721442885771543,-0.5746861650210432,1.2167996882961334,0.029101285051447955,-0.4984431365837907,-0.2205104503292561,0.0,0.0
0.7414829659318637,-0.5504444100951066,1.2120877462968322,0.019444617009812044,-0.48283340208179554,1.0205144084695794,0.0,0.0
0.7615230460921844,-0.5258099184021742,1.231724584646619,0.009313578807144878,-0.5065519101333583,-0.5831991760908812,0.0,0.0
0.781563126252505,-0.501405627604714,1.2202145398730084,-0.00041765985145312406,-0.4865619329299001,0.4109221075886953,0.0,0.0
0.8016032064128256,-0.4768408665035285,1.2282380550592717,-0.010391907903628882,-0.4987124026087879,0.05129938950231244,0.0,0.0
0.8216432865731462,-0.4522531591617727,1.2293853670877906,-0.020461617113633545,-0.5034854605002331,-0.35817269505906324,0.0,0.0
0.8416833667334669,-0.42779945381823753,1.2226852671767598,-0.03045072169379279,-0.4994552290079623,-0.6421974798796279,0.0,0.0
0.8617234468937875,-0.4035877595459347,1.210584713615142,-0.04025611535058163,-0.49026968283944206,-0.6648713728267905,0.0,0.0
0.8817635270541082,-0.3796241483463497,1.198180559979247,-0.04992641234809766,-0.4835148498758014,-1.0272207819522063,0.0,0.0
0.9018036072144289,-0.3560472557014669,1.1788446322441402,-0.05931097826973285,-0.4692282960817595,-0.8565247361753143,0.0,0.0
0.9218436873747494,-0.3327878135406833,1.16297210803918,-0.06856882907765068,-0.4628925403958915,-1.5373757402828652,0.0,0.0
0.9418837675350701,-0.3101087898605397,1.1339511840071808,-0.07736125780800278,-0.43962143651760516,-1.2143659261393183,0.0,0.0
0.9619238476953907,-0.2878816512603026,1.1113569300118546,-0.0859324550985578,-0.42855986452775113,-1.4731397983293015,0.0,0.0
0.9819639278557114,-0.26620487098988305,1.0838390135209754,-0.09418602078127118,-0.41267828413566887,-2.2140846689265605,0.0,0.0
1.002004008016032,-0.2453650176752705,1.041992665730628,-0.10174319080177029,-0.3778585010249551,-2.130742293530641,0.0,0.0
1.0220440881763526,-0.22532735086250527,1.001883340638261,-0.10870089669314674,-0.34788529456882245,-3.2193702952465966,0.0,0.0
1.0420841683366733,-0.20651425572710203,0.9406547567701623,-0.1144712318490255,-0.28851675779393793,-3.3796852475369565,0.0,0.0
1.062124248496994,-0.1889864354518594,0.876391013762131,-0.11899867090755599,-0.22637195292652468,-3.332921367184791,0.0,0.0
1.0821643286573146,-0.17272423403511958,0.8131100708369909,-0.12233991067315285,-0.16706198827984275,-3.1506329255552994,0.0,0.0
1.1022044088176353,-0.15765554018949737,0.7534346922811098,-0.12462249707817606,-0.11412932025116096,-2.9380378074125137,0.0,0.0
1.122244488977956,-0.14369677020421256,0.6979384992642405,-0.12598456974838373,-0.06810363351038362,-2.5497894231838845,0.0,0.0
1.1422845691382766,-0.13069616877758317,0.6500300713314698,-0.12666004092316463,-0.03377355873904507,-2.3547733177859875,0.0,0.0
1.1623246492985972,-0.11857751661746439,0.6059326080059386,-0.1267663127473925,-0.005313591211393194,-2.125541609804035,0.0,0.0
1.1823647294589177,-0.10725143205327974,0.5663042282092331,-0.12643693608247433,0.016468833245908743,-2.214464399359203,0.0,0.0
1.2024048096192383,-0.09675267144402157,0.5249380304629081,-0.12561825541205648,0.04093403352089259,-2.04639048696996,0.0,0.0
1.222444889779559,-0.08701596591291269,0.48683527655544406,-0.1244024416397224,0.060790688616704204,-2.62000496556855,0.0,0.0
1.2424849699398797,-0.07826526193754581,0.4375351987683444,-0.12244911729503756,0.09766621723424226,-2.5655823306068597,0.0,0.0
1.2625250501002003,-0.07047993600556447,0.38926629659906653,-0.11977722034134289,0.1335948476847339,-2.2840788142813007,0.0,0.0
1.282565130260521,-0.06355105945637929,0.34644382745925933,-0.11653281869536596,0.16222008229884666,-1.9807160013790253,0.0,0.0
1.3026052104208417,-0.057361337932194854,0.3094860762092216,-0.11287112821208076,0.1830845241642598,-1.456542757259935,0.0,0.0
1.3226452905811623,-0.05170749497663548,0.2826921477779687,-0.10907309385790889,0.18990171770859324,-1.3440365601174027,0.0,0.0
1.342685370741483,-0.04654676243967107,0.25803662684822065,-0.10517992771639116,0.19465830707588688,-1.18910560999592,0.0,0.0
1.3627254509018036,-0.04181985128736361,0.23634555761537288,-0.10125696256112246,0.1961482577634352,-1.2601422958417232,0.0,0.0
1.3827655310621243,-0.03755558471088485,0.2132133288239381,-0.09723801914162297,0.20094717097497447,-1.092959201533945,0.0,0.0
1.4028056112224447,-0.03368992441724373,0.19328301468205597,-0.09319486484790751,0.20215771468577307,-1.1039571222261746,0.0,0.0
1.4228456913827654,-0.03022831661819271,0.17308038995255087,-0.08909548994285084,0.20496874525283387,-1.1087765277943724,0.0,0.0
1.442885771543086,-0.0271738164508694,0.1527250083661655,-0.08491111748817293,0.20921862273389585,-0.9768525732388119,0.0,0.0
1.4629258517034067,-0.024476172519734805,0.13488219655672987,-0.08069208848380144,0.2109514502185747,-0.8145940308182258,0.0,0.0
1.4829659318637274,-0.02207330528832319,0.12014336157058081,-0.07650626716214097,0.20929106608302367,-0.5876108898270316,0.0,0.0
1.503006012024048,-0.019877871802427942,0.10977167429476237,-0.07245953658950077,0.20233652863201024,-0.5736068794223395,0.0,0.0
1.5230460921843687,-0.01788555769615031,0.09961570531388153,-0.0685345396965069,0.1962498446496939,-0.5104816979635982,0.0,0.0
1.5430861723446894,-0.016072853645297383,0.09063520254264641,-0.06474334426592437,0.1895597715291265,-0.41656221245239444,0.0,0.0
1.56312625250501,-0.014404198275558873,0.0834327684869255,-0.061116850536648816,0.18132468646377786,-0.4403483910708724,0.0,0.0
1.5831663326653307,-0.012889900642056277,0.07571488167512978,-0.05761831592057716,0.17492673080358287,-0.3956234407028826,0.0,0.0
1.6032064128256511,-0.011513507516108891,0.06881965629736929,-0.05425179357842611,0.16832611710755227,-0.38092034517830237,0.0,0.0
1.6232464929859718,-0.010270240715915905,0.0621633400096493,-0.05100464502154102,0.16235742784425444,-0.30427607266855705,0.0,0.0
1.6432865731462925,-0.009131122321069825,0.05695591974230391,-0.04790116452069982,0.1551740250420601,-0.21908573457352673,0.0,0.0
1.6633266533066131,-0.008063798097142819,0.053366211196350315,-0.044971558765785194,0.14648028774573138,-0.25413726316469676,0.0,0.0
1.6833667334669338,-0.007082777784403778,0.04905101563695203,-0.04217688733777919,0.13973357140030032,-0.20765441019149622,0.0,0.0
1.7034068136272544,-0.006170721608821785,0.04560280877909964,-0.03952669797541992,0.1325094681179635,-0.21192077241951615,0.0,0.0
1.723446893787575,-0.005330049812734633,0.04203358980435759,-0.03700179384472068,0.1262452065349619,-0.18952540188061956,0.0,0.0
1.7434869739478958,-0.004552744526299524,0.03886526432175544,-0.03459934937674844,0.1201222233986121,-0.15572695781059226,0.0,0.0
1.7635270541082164,-0.0038263037055037575,0.036322041039788325,-0.032323978038768984,0.11376856689897269,-0.126213984077214,0.0,0.0
1.783567134268537,-0.003139861182268826,0.03432212616174656,-0.030178591249922226,0.10726933944233781,-0.10252786019228043,0.0,0.0
1.8036072144288577,-0.0024847873387729043,0.03275369217479609,-0.02816351460511264,0.10075383224047918,-0.11325518354963786,0.0,0.0
1.8236472945891782,-0.0018658436651687953,0.030947183680205454,-0.02625977418698183,0.09518702090654055,0.02959898245837851,0.0,0.0
1.8436873747494988,-0.0012278317366667805,0.031900596425100736,-0.024538901724427978,0.08604362312769252,-0.049108148072203955,0.0,0.0
1.8637274549098195,-0.0006019551636230336,0.03129382865218735,-0.022944027222047705,0.0797437251190136,-0.03895236845150818,0.0,0.0
1.8837675350701402,1.5292964995091188e-05,0.03086240643090624,-0.021471036325876967,0.07364954480853701,-0.05058612067454474,0.0,0.0
1.9038076152304608,0.000618951758868582,0.03018293969367454,-0.020103839997892503,0.06835981639922314,-0.07611480328281209,0.0,0.0
1.9238476953907815,0.0011986683990062867,0.02898583200688523,-0.018818888909806892,0.06424755440428055,-0.05540774145657948,0.0,0.0
1.9438877755511021,0.001762155315362063,0.028174345817788802,-0.01762019217325533,0.05993483682757802,-0.0736268598991637,0.0,0.0
1.9639278557114228,0.0023019599682875943,0.02699023264627656,-0.016489536399220704,0.056532788701731354,-0.07384320539039506,0.0,0.0
1.9839679358717435,0.0028176741829752496,0.02578571073438277,-0.015419665969781678,0.053493521471951286,-0.07210197398788502,0.0,0.0
2.004008016032064,0.0033096710257098485,0.024599842136729937,-0.014404853343589173,0.05074063130962518,-0.05508915383125228,0.0,0.0
2.024048096192385,0.0037842985774627345,0.0237313775876443,-0.013448650461347285,0.047810144112094395,-0.04058260247100936,0.0,0.0
2.0440881763527052,0.004246943714695194,0.02313225686162296,-0.012553513097737553,0.04475686818048657,-0.0032227468792217495,0.0,0.0
2.064128256513026,0.004711928657942329,0.023249247162356736,-0.011735649588725113,0.04089317545062201,-0.042212680288430816,0.0,0.0
2.0841683366733466,0.005163804424735925,0.02259378833967981,-0.010967096885484544,0.03842763516202847,-0.04471828362978637,0.0,0.0
2.1042084168336674,0.005601373085210575,0.02187843302373249,-0.010241543175980103,0.03627768547522211,-0.032058941979820545,0.0,0.0
2.124248496993988,0.0060293667213310006,0.021399681806021278,-0.009561818261315988,0.03398624573320571,-0.026332315284690475,0.0,0.0
2.1442885771543083,0.006449825240443997,0.02102292595564984,-0.008926985764711537,0.031741624830222526,-0.03163074332488016,0.0,0.0
2.164328657314629,0.006860499169076606,0.020533696431630447,-0.008329943327530094,0.029852121859072156,-0.04818819708972136,0.0,0.0
2.1843687374749496,0.007254756305113256,0.019712856801832507,-0.007757240843654773,0.028635124193766043,-0.015127906828519687,0.0,0.0
2.2044088176352705,0.007645333452776836,0.01952885738317898,-0.007224605619970846,0.026631761184196367,-0.009281563882163373,0.0,0.0
2.224448897795591,0.00803435936551565,0.019451295636940685,-0.006732098835850113,0.02462533920603665,0.15963007349260058,0.0,0.0
2.244488977955912,0.008487606412064353,0.02266235232743512,-0.006375421118504879,0.01783388586726171,0.060053501058477066,0.0,0.0
2.2645290581162323,0.008966115167691675,0.02392543778136609,-0.006094075334456107,0.014067289202438597,0.008931421106655256,0.0,0.0
2.284569138276553,0.009449855903216692,0.024187036776250885,-0.0058563830322733235,0.011884615109139171,0.013334052779686143,0.0,0.0
2.3046092184368736,0.009940478518079124,0.024531130743121524,-0.0056634207512015495,0.009648114053588678,-0.026347147210189603,0.0,0.0
2.3246492985971945,0.010422443110594364,0.024098229625761993,-0.005490759692619514,0.008633052929101773,-0.028815415678522995,0.0,0.0
2.344689378757515,0.010894737013407348,0.02361469514064926,-0.005335867217551776,0.007744623753386918,-0.02578633675634802,0.0,0.0
2.3647294589178354,0.011358497854947067,0.023188042076985976,-0.0051995384808066975,0.006816436837253961,-0.04180050799004173,0.0,0.0
2.3847695390781563,0.011807437426514973,0.02244697857839528,-0.005071546077924735,0.006399620144098126,-0.03262954029910132,0.0,0.0
2.4048096192384767,0.012245097785921949,0.02188301797034876,-0.00495644757879609,0.0057549249564322605,-0.06460687405145044,0.0,0.0
2.4248496993987976,0.012658967576497758,0.020693489528790472,-0.004834811543152873,0.006081801782160877,0.08733941950017862,0.0,0.0
2.444889779559118,0.013108305235540933,0.022466882952158745,-0.0047947542827891,0.0020028630181886395,0.028268137498487778,0.0,0.0
2.464929859719439,0.013570048170473425,0.02308714674662455,-0.00480146853732572,-0.00033571272683100223,-0.03246087180754131,0.0,0.0
2.4849699398797593,0.0140205003035044,0.022522606651548736,-0.004819472254839722,-0.0009001858757001206,-0.02044761897026872,0.0,0.0
2.50501002004008,0.01446435467145064,0.022192718397312024,-0.0048559063078570395,-0.001821702650865864,-0.0497901096886164,0.0,0.0
2.5250501002004007,0.014890171532052604,0.02129084303009817,-0.004893836100889703,-0.0018964896516331915,-0.0662795545461347,0.0,0.0
2.5450901803607215,0.015291527157355909,0.020067781265165254,-0.0049238550660310266,-0.0015009482570661568,-0.0771712663052237,0.0,0.0
2.565130260521042,0.01566417992981365,0.018632638622887093,-0.0049397812326137875,-0.0007963083291380578,-0.11993027786722271,0.0,0.0
2.5851703406813624,0.01599144876353263,0.01636344168594911,-0.004916702495247635,0.001153936868307621,-0.06044817558442613,0.0,0.0
2.6052104208416833,0.01629653846865806,0.015254485256271483,-0.004889268283473066,0.0013717105887284566,-0.06942500862892534,0.0,0.0
2.6252505010020037,0.01657593819329532,0.013969986231862979,-0.00485205445677964,0.001860691334671303,0.0012687386569488895,0.0,0.0
2.6452905811623246,0.016857223765817983,0.014064278626133273,-0.004846179749927817,0.00029373534259113606,-0.04260000955948091,0.0,0.0
2.665330661322645,0.017123274803005458,0.013302551859373674,-0.004845945408578024,1.1717067489655855e-05,-0.046003091501130335,0.0,0.0
2.685370741482966,0.017372763268691232,0.012474423284288641,-0.0048493592690357435,-0.0001706930228859889,-0.05353172552645748,0.0,0.0
2.7054108216432864,0.017602752277203277,0.011499450425602256,-0.0048520388673060875,-0.0001339799135171975,-0.0677621586809607,0.0,0.0
2.7254509018036073,0.017807689520199437,0.01024686214980804,-0.004845676787278844,0.0003181040013622026,-0.0649144555869591,0.0,0.0
2.7454909819639277,0.01798868442011304,0.009049744995680155,-0.004831898717261421,0.0006889035008711752,-0.07512847915233352,0.0,0.0
2.7655310621242486,0.018141747256113592,0.0076531418000275525,-0.004804642917959162,0.0013627899651129259,-0.07412802535794641,0.0,0.0
2.785571142284569,0.01826726061788165,0.006275668088402882,-0.00476432274118224,0.002016008838846093,-0.07479907899971502,0.0,0.0
2.8056112224448895,0.018364951085540277,0.0048845233829313195,-0.004710291378127715,0.0027015681527262697,-0.07458393244086182,0.0,0.0
2.8256513026052104,0.018434887126746343,0.0034968020603033294,-0.004642333951907471,0.0033978713110122145,-0.05279559497410758,0.0,0.0
2.845691382765531,0.018485551625460884,0.002533224935727,-0.0045727673547659034,0.0034783298570783693,-0.0567690633004385,0.0,0.0
2.8657314629258517,0.018515374092712398,0.0014911233625757613,-0.004498828548259373,0.0036969403253265423,-0.05949960823901827,0.0,0.0
2.885771543086172,0.01852326780642569,0.0003946856856645851,-0.004418453989290883,0.004018727948424474,-0.061155551501993866,0.0,0.0
2.905811623246493,0.018508563536578714,-0.0007352134923487169,-0.00433016815533118,0.004414291697985147,-0.06184694688973292,0.0,0.0
2.9258517034068134,0.018470966176523135,-0.0018798680027790572,-0.004233009862470145,0.004857914643051735,-0.061706614886283075,0.0,0.0
2.9458917835671343,0.01841050263759246,-0.003023176946533735,-0.00412644850916204,0.005328067665405248,-0.06082095021161667,0.0,0.0
2.9659318637274548,0.01832748798365136,-0.00415073269705493,-0.004010330192808714,0.00580591581766634,-0.05937038535972316,0.0,0.0
2.9859719438877756,0.018222454977676383,-0.005251650298748984,-0.0038847711927448157,0.006277950003194896,-0.057409870098054275,0.0,0.0
3.006012024048096,0.01809613267234401,-0.0063161152666186444,-0.003750126560288623,0.006732231622809628,-0.05500048822504605,0.0,0.0
3.0260521042084165,0.017949422675402095,-0.0073354998470957725,-0.003606956626261909,0.007158496701335716,-0.036264040458376105,0.0,0.0
3.0460921843687374,0.017789595391720557,-0.007991364184076873,-0.0034653187915308203,0.0070818917365544146,-0.03727319352793919,0.0,0.0
3.066132264529058,0.017616216425470937,-0.008668948312480987,-0.0033237295583358278,0.007079461659749633,-0.03756691049578946,0.0,0.0
