time,x,x_dot,theta,theta_dot,u,x_ref,theta_ref
0.0,-1.175018760840599,0.0406375109189622,0.0754037998324012,0.03777381460521276,-3.6556051430949927,0.0,0.0
0.02004008016032064,-1.1756534519981874,-0.031734557879416966,0.07876559415080639,0.16808971592025954,-3.366638512623209,0.0,0.0
0.04008016032064128,-1.17762372912452,-0.09851385631662624,0.08458568265251194,0.2910044250852774,-0.9171443962468149,0.0,0.0
0.06012024048096192,-1.1799756910065882,-0.1175980941034085,0.09147235569413807,0.34433365208130673,1.5729269544976088,0.0,0.0
0.08016032064128256,-1.1817400763173749,-0.08821926553933057,0.09801866901359968,0.3273156659730804,-1.4016099882979378,0.0,0.0
0.1002004008016032,-1.1840787158447466,-0.11693197636857837,0.10599676150030668,0.3989046243353499,1.0638901805518168,0.0,0.0
0.12024048096192384,-1.1860323398729924,-0.09768120141229447,0.11402263668942235,0.4012937594557833,0.9085198047324309,0.0,0.0
0.1402805611222445,-1.1876637838283526,-0.08157219776800843,0.12223726320351537,0.41073132570465104,2.646890559375645,0.0,0.0
0.16032064128256512,-1.1882977149282026,-0.031696554992503366,0.1296842314086365,0.3723484102560565,-0.2921175132902687,0.0,0.0
0.18036072144288576,-1.1890818612975351,-0.03920731846663191,0.13811442358521223,0.42150960882878696,3.9383755333690975,0.0,0.0
0.2004008016032064,-1.1883698344611058,0.03560134182146515,0.1451321433876924,0.3508859901240088,2.2244679466242205,0.0,0.0
0.22044088176352705,-1.1868316968200399,0.07690688205329801,0.1517743436092217,0.33211001107646576,3.7485667820200854,0.0,0.0
0.24048096192384769,-1.1838756544790723,0.14780211704837393,0.15720390506603307,0.2714780728405688,0.7704317873081235,0.0,0.0
0.2605210420841683,-1.1806635251390203,0.16060646700260517,0.16317429113588197,0.2985193034924451,4.089602298923016,0.0,0.0
0.280561122244489,-1.1759041755763162,0.23796747813520594,0.1678107218746153,0.23182153693666663,3.37154063696223,0.0,0.0
0.3006012024048096,-1.1698787732422344,0.3012701167040922,0.1715574087562331,0.1873343440808901,3.412247175059179,0.0,0.0
0.32064128256513025,-1.16257265102978,0.3653061106227232,0.17441558898159806,0.14290901126824782,3.5903521352885055,0.0,0.0
0.3406813627254509,-1.1539173676744106,0.43276416776847704,0.176301710814972,0.09430609166869677,3.3784000198040918,0.0,0.0
0.3607214428857715,-1.14399605578829,0.49606559430603314,0.1773500425428098,0.0524165863918896,3.247710865601999,0.0,0.0
0.3807615230460922,-1.1328599336014615,0.5568061093414282,0.17764257347380283,0.014626546549651405,3.1445956746428476,0.0,0.0
0.4008016032064128,-1.1205492438362985,0.615534488258152,0.17724046669201296,-0.020105339089493232,3.2253928302593198,0.0,0.0
0.42084168336673344,-1.1070324083868615,0.6758417724718512,0.17609467543371687,-0.05728956291480471,3.7785344950782545,0.0,0.0
0.4408817635270541,-1.0920937081220414,0.746935013241006,0.17387983167311552,-0.11074218803006725,3.6406387540397347,0.0,0.0
0.4609218436873747,-1.075786132077977,0.8153788022032216,0.17066053326261957,-0.16096492052479697,3.452742365317952,0.0,0.0
0.48096192384769537,-1.0581818283219013,0.8802151878037799,0.16652359348454657,-0.2068469889036498,3.2082524573129954,0.0,0.0
0.501002004008016,-1.0393747131986715,0.9403557561614933,0.16158253667859981,-0.24705284029733812,3.077478517326666,0.0,0.0
0.5210420841683366,-1.019414190620449,0.9980261289111261,0.15588035729733263,-0.28510896906335914,2.9522019872153957,0.0,0.0
0.5410821643286573,-0.998347306305065,1.0533442157692057,0.14945207975432906,-0.3214138771501782,2.7200449653876992,0.0,0.0
0.561122244488978,-0.9762625429652391,1.1042381669912962,0.14238991008721721,-0.3531084833555918,2.7103890299322133,0.0,0.0
0.5811623246492986,-0.9531615311880387,1.1550505888600173,0.13465364256227477,-0.38681337624712236,2.421517605765016,0.0,0.0
0.6012024048096192,-0.929154514011719,1.2003508588159866,0.1263603898774727,-0.4146626342401041,2.121989266020336,0.0,0.0
0.6212424849699398,-0.904355773214079,1.2399370398819978,0.11763031665484619,-0.43650366113132505,2.688177363979942,0.0,0.0
0.6412825651302605,-0.8785420285039351,1.2906872355071952,0.10807884445180223,-0.47757361015219785,2.180436230869429,0.0,0.0
0.6613226452905812,-0.8519083770170283,1.331682574345343,0.09793932275028769,-0.506976085075727,1.7597481027808826,0.0,0.0
0.6813627254509018,-0.8246158900625881,1.3646243477220075,0.087391501967395,-0.5273910391446348,1.2691154687976611,0.0,0.0
0.7014028056112224,-0.7968528719007072,1.3881509080940446,0.07665390464788002,-0.5368798659757484,1.4333863293475169,0.0,0.0
0.721442885771543,-0.7685521947849003,1.4150338557903424,0.06556269183053393,-0.5545606408673047,0.5015214947169306,0.0,0.0
0.7414829659318637,-0.7400742123202918,1.4238991232304266,0.05459125003886368,-0.5485720895835123,1.2676238895630836,0.0,0.0
0.7615230460921844,-0.711116970730296,1.4478620794997916,0.043223075603437924,-0.5684087217712874,0.03101215244834421,0.0,0.0
0.781563126252505,-0.6821597289101046,1.447862091009572,0.032108814683220105,-0.555713046010891,0.7458781733101368,0.0,0.0
0.8016032064128256,-0.6529204510519893,1.4619638929057681,0.02076063135883021,-0.5674091662194947,0.5092007865377863,0.0,0.0
0.8216432865731462,-0.6234882945034076,1.4716078274290818,0.009245360518413374,-0.5757635420208418,0.5173580527593772,0.0,0.0
0.8416833667334669,-0.5938568427145399,1.4815725894433833,-0.002514325701194236,-0.5879843109803805,0.053497827984359536,0.0,0.0
0.8617234468937875,-0.5642038109533323,1.482651588060378,-0.014321136543649492,-0.5903405421227628,0.3969331410186688,0.0,0.0
0.8817635270541082,-0.5343918808860715,1.4905965033630375,-0.026450274353774374,-0.6064568905062442,-0.6279556880682546,0.0,0.0
0.9018036072144289,-0.5048175950381222,1.4787142923974634,-0.03837870544319083,-0.5964215544708227,-0.18570673643243407,0.0,0.0
0.9218436873747494,-0.47530504649862354,1.4756274269749332,-0.05044012703702444,-0.6030710796916806,-1.008826720355898,0.0,0.0
0.9418837675350701,-0.4461720221801923,1.456651215921562,-0.062229618492516264,-0.589474572774591,-0.6142212266553837,0.0,0.0
0.9619238476953907,-0.4172612504771859,1.4455385851503217,-0.07405202978725843,-0.5911205647371085,-1.4925735931208863,0.0,0.0
0.9819639278557114,-0.38891205099635473,1.4174599740415559,-0.08546967238192589,-0.5708821297333729,-1.623168646092995,0.0,0.0
1.002004008016032,-0.3611720927864629,1.3869979104945929,-0.09647899417226011,-0.5504660895167112,-1.872026773696022,0.0,0.0
1.0220440881763526,-0.33413525749451894,1.3518417645971978,-0.10700525510771512,-0.5263130467727506,-4.556490076669611,0.0,0.0
1.0420841683366733,-0.30884516567628023,1.264504590911935,-0.11555561265579714,-0.4275178774041011,-4.612840210829828,0.0,0.0
1.062124248496994,-0.2853209904977374,1.1762087589271424,-0.12215393678667108,-0.32991620654369713,-4.187661763128698,0.0,0.0
1.0821643286573146,-0.2633948074066237,1.0963091545556871,-0.12709065270024705,-0.24683579567879926,-3.73865945472125,0.0,0.0
1.1022044088176353,-0.2428899897826786,1.0252408811972546,-0.13065865409836802,-0.178400069906048,-3.3120148361465183,0.0,0.0
1.122244488977956,-0.22363910436335452,0.9625442709662037,-0.13312856451877164,-0.12349552102018074,-2.6243870884959066,0.0,0.0
1.1422845691382766,-0.2053733832002339,0.9132860581560309,-0.13491471751287917,-0.08930764970537716,-2.2891738529425973,0.0,0.0
1.1623246492985972,-0.18796164455254213,0.870586932384588,-0.1362227301564567,-0.06540063217887655,-2.109506704109295,0.0,0.0
1.1823647294589177,-0.17133347986091205,0.8314082345815044,-0.13716501363587133,-0.047114173970732,-2.0609515956859696,0.0,0.0
1.2024048096192383,-0.155469687856217,0.7931896002347513,-0.1377757178565865,-0.030535211035757247,-2.1227580571346505,0.0,0.0
1.222444889779559,-0.1403941728947089,0.753775748075406,-0.13802299898385745,-0.01236405636354753,-2.6439027954753858,0.0,0.0
1.2424849699398797,-0.12630994406846524,0.7042114413121825,-0.13760690719444466,0.020804589470639116,-2.1968360246724856,0.0,0.0
1.2625250501002003,-0.11304290752512385,0.66335182716707,-0.13678344630835856,0.04117304430430513,-2.212934194590895,0.0,0.0
1.282565130260521,-0.10059958021880466,0.6221663653159589,-0.13553800682889733,0.06227197397306221,-2.0432176370824906,0.0,0.0
1.3026052104208417,-0.08891419185662218,0.5842694181091239,-0.13396081872713586,0.07885940508807285,-2.0541583024302033,0.0,0.0
1.3226452905811623,-0.07799147062147001,0.5461360617576086,-0.13203543286271674,0.09626929322095606,-1.9311581743357482,0.0,0.0
1.342685370741483,-0.06778404699457845,0.5103711813445778,-0.12982073488132753,0.11073489906946,-1.7440013981522706,0.0,0.0
1.3627254509018036,-0.05821962644340609,0.4782210275586178,-0.12741097395639484,0.12048804624663456,-1.4943176603478134,0.0,0.0
1.3827655310621243,-0.0492015917756784,0.4509017333863846,-0.12493546984580675,0.12377520552940427,-1.422967396680947,0.0,0.0
1.4028056112224447,-0.040702844075292614,0.42493738501928935,-0.12241984252466069,0.12578136605730292,-1.4420958093481218,0.0,0.0
1.4228456913827654,-0.03273156178809072,0.39856411436009487,-0.1198370124314732,0.12914150465937446,-1.8231870100685972,0.0,0.0
1.442885771543086,-0.025437044425044936,0.364725868152289,-0.11694946219746725,0.14437751170029714,-1.758176807420869,0.0,0.0
1.4629258517034067,-0.018794794356214617,0.3321125034415158,-0.11377646904435322,0.1586496576557016,-1.6320596278271917,0.0,0.0
1.4829659318637274,-0.012756571137537429,0.3019111609338594,-0.11037100215552549,0.1702733444413865,-1.462050948086683,0.0,0.0
1.503006012024048,-0.0072570825730626,0.27497442822374146,-0.10681011215409512,0.17804450007151865,-1.3075688044596379,0.0,0.0
1.5230460921843687,-0.002237125460704977,0.2509978556178811,-0.1031609292518983,0.1824591451098406,-1.1853645796689363,0.0,0.0
1.5430861723446894,0.0023499007003672323,0.22935130805361045,-0.09947133854678947,0.1844795352554416,-1.071884297129427,0.0,0.0
1.56312625250501,0.006547189235761356,0.20986442676970615,-0.0957839572546571,0.184369064606618,-1.040647958204047,0.0,0.0
1.5831663326653307,0.010365867208324307,0.19093389862814758,-0.09209361403200426,0.18451716113264227,-0.9824096838492813,0.0,0.0
1.6032064128256511,0.013827591402345695,0.1730862097010694,-0.08841084968568046,0.1841382173161901,-0.929883032797985,0.0,0.0
1.6232464929859718,0.01695179496468435,0.15621017811693264,-0.08474295129964544,0.18339491930175056,-0.9174536638165663,0.0,0.0
1.6432865731462925,0.019742277809350964,0.13952414223333076,-0.08107396124125765,0.18344950291938933,-0.8759217569292455,0.0,0.0
1.6633266533066131,0.02221418985230343,0.12359560214762341,-0.07740487747373971,0.1834541883758969,-0.8201735942249418,0.0,0.0
1.6833667334669338,0.024388226828071354,0.10870184878839609,-0.0737449995444608,0.18299389646394565,-0.759096299902206,0.0,0.0
1.7034068136272544,0.02628716718962849,0.0949470180778569,-0.07010681235322062,0.18190935956200882,-0.6993959276693241,0.0,0.0
1.723446893787575,0.027933259950447667,0.08230463804095883,-0.0665021549344587,0.18023287093809606,-0.6509706150993279,0.0,0.0
1.7434869739478958,0.029344366595385658,0.07055533224689953,-0.06293651760182739,0.17828186663156556,-0.6098461868163578,0.0,0.0
1.7635270541082164,0.030535512316097416,0.05955728603558791,-0.059411389264691326,0.1762564168568032,-0.563450232735026,0.0,0.0
1.783567134268537,0.03152379083402115,0.049413925896186504,-0.05593160216850935,0.17398935480909894,-0.5167984554150042,0.0,0.0
1.8036072144288577,0.0323264091817118,0.040130917384532505,-0.05250243504635919,0.17145835610750795,-0.47261815471725993,0.0,0.0
1.8236472945891782,0.0329596251185181,0.03166079684031486,-0.04912805271480236,0.16871911657784133,-0.26944919108390586,0.0,0.0
1.8436873747494988,0.03350174301683465,0.027105894915827846,-0.045905849845183866,0.16111014348092464,-0.27266542565832896,0.0,0.0
1.8637274549098195,0.033950590717128866,0.02244238501471085,-0.042813639424185396,0.15461052104992357,-0.24002478943594185,0.0,0.0
1.8837675350701402,0.03431802241368093,0.01837158482760349,-0.03985100322239897,0.14813181008932125,-0.21649611027579616,0.0,0.0
1.9038076152304608,0.034612373791800065,0.014717568905956744,-0.037013017551283195,0.1418992835557888,-0.1813629170726774,0.0,0.0
1.9238476953907815,0.03484654373371624,0.011708497095808956,-0.034302328847229425,0.1355344352026886,-0.1487914489153859,0.0,0.0
1.9438877755511021,0.03503246783698002,0.009296205163188695,-0.03172089131673808,0.12907187652456706,-0.10460765289612597,0.0,0.0
1.9639278557114228,0.03518664961621126,0.007709088961562376,-0.029278265058686602,0.12213131290257405,-0.12443503183073272,0.0,0.0
1.9839679358717435,0.03530065503940998,0.005700271159936035,-0.026947461808981523,0.1165401624852539,-0.0756931122243257,0.0,0.0
2.004008016032064,0.03539283745660498,0.004609120859750016,-0.02474228931484533,0.11025862470680958,-0.0878036593178561,0.0,0.0
2.024048096192385,0.035457841107038146,0.003250182521658412,-0.022641765561012446,0.10502618769164425,0.13636268952747055,0.0,0.0
2.0440881763527052,0.035582537674021364,0.006234828349160866,-0.02076374137623971,0.09390120923863683,0.10803791780623477,0.0,0.0
2.064128256513026,0.03575533831094185,0.008640031846024321,-0.019079818455790973,0.08419614602243682,0.11594325888244977,0.0,0.0
2.0841683366733466,0.03597884669632498,0.011175419269156314,-0.01758400826903419,0.0747905093378392,0.007211804856056492,0.0,0.0
2.1042084168336674,0.03621020640816701,0.011567985592101619,-0.01620328995939666,0.06903591548187649,0.15227028896274,0.0,0.0
2.124248496993988,0.03650562686945839,0.01477102306456872,-0.015013801817134857,0.05947440711309006,-0.03575625373162877,0.0,0.0
2.1442885771543083,0.036791396295972945,0.014288471325727943,-0.013898070494359371,0.05578656613877427,0.08049994575560682,0.0,0.0
2.164328657314629,0.03711256074444039,0.016058222423372293,-0.012917060399969217,0.04905050471950774,-0.037990701176326705,0.0,0.0
2.1843687374749496,0.03742260185608529,0.015502055582245124,-0.011995279876850612,0.04608902615593021,0.030322354901717724,0.0,0.0
2.2044088176352705,0.03774791284463134,0.01626554942730242,-0.01116687471589811,0.04142025804762514,0.026190090275852992,0.0,0.0
2.224448897795591,0.038086643966476215,0.016936556092243975,-0.010424204773975033,0.03713349709615387,-0.03680867637839036,0.0,0.0
2.244488977955912,0.03841399893966876,0.01636774865962717,-0.009725737123761957,0.034923382510653814,-0.0018795730967460442,0.0,0.0
2.2645290581162323,0.03874340778923298,0.01647044247821113,-0.009087498931723137,0.03191190960194096,0.06047750443075329,0.0,0.0
2.284569138276553,0.03909902086888312,0.01778065398250716,-0.008541941294727991,0.027277881849757317,0.07229397891367996,0.0,0.0
2.3046092184368736,0.03948529297350368,0.019313605231027903,-0.008092536425966936,0.02247024343805278,-0.04287922496866754,0.0,0.0
2.3246492985971945,0.03985715199525307,0.01859295108746948,-0.007669080017845283,0.02117282040608264,-0.06369092892226809,0.0,0.0
2.344689378757515,0.040206355342590434,0.01746016736686835,-0.007256727905754219,0.020617605604553207,-0.17202984641558317,0.0,0.0
2.3647294589178354,0.04049050832347365,0.014207649044161058,-0.0067895062921677985,0.02336108067932105,0.14238951281853895,0.0,0.0
2.3847695390781563,0.040832171201898027,0.017083143921218687,-0.006448390710618011,0.01705577907748939,-0.02997380100926242,0.0,0.0
2.4048096192384767,0.04116398581136494,0.016590730473345576,-0.006130404851292078,0.015899292966296625,-0.14809057462832714,0.0,0.0
2.4248496993987976,0.041439768898845396,0.013789154374022748,-0.005764449823780219,0.018297751375592988,0.16407194238856898,0.0,0.0
2.444889779559118,0.0417812292060893,0.017073015362195125,-0.005530821062465104,0.011681438065755733,0.1888777496641979,0.0,0.0
2.464929859719439,0.042197979657454775,0.020837522568273578,-0.005442555999725631,0.004413253136973671,0.09816182920186975,0.0,0.0
2.4849699398797593,0.04265459533221279,0.022830783737900685,-0.005446032619164258,-0.00017383097193132257,0.10226150326280736,0.0,0.0
2.50501002004008,0.04315267702500351,0.024904084639535837,-0.005543671005666964,-0.0048819193251353026,0.08484330770507753,0.0,0.0
2.5250501002004007,0.043685455696333274,0.026638933566488367,-0.005725897811031624,-0.00911134026823299,-0.028119726963008504,0.0,0.0
2.5450901803607215,0.044208902548642424,0.02617234261545765,-0.005927782926040309,-0.010094255750434227,-0.011476180606649327,0.0,0.0
2.565130260521042,0.0447295701736565,0.026033381250704025,-0.006160335265811634,-0.011627616988566267,-0.07568948661408922,0.0,0.0
2.5851703406813624,0.045222467584157,0.024644870525025134,-0.0063874590093428675,-0.011356187176561656,-0.1003562083924297,0.0,0.0
2.6052104208416833,0.04567803431372937,0.022778336478618322,-0.0065961573932179435,-0.010434919193753785,-0.21251836151009262,0.0,0.0
2.6252505010020037,0.0460525617305467,0.018726370840866563,-0.0067221362763296945,-0.0062989441555875375,-0.06937640960123048,0.0,0.0
2.6452905811623246,0.04640194349673238,0.017469088309284026,-0.0068499222698679375,-0.006389299676912153,0.08747682394431794,0.0,0.0
2.665330661322645,0.0467874242504803,0.01927403768739608,-0.007072073723946987,-0.011107572703952504,0.01524429876109297,0.0,0.0
2.685370741482966,0.04718088073128941,0.019672824040455818,-0.007347738470503874,-0.013783237327844318,-0.03039046257469912,0.0,0.0
2.7054108216432864,0.047564584130647056,0.019185169967882245,-0.007651960454971948,-0.015211099223403723,-0.07751824910762063,0.0,0.0
2.7254509018036073,0.04792023122350476,0.017782354642885,-0.007959090482628184,-0.015356501382811779,-0.0797956335938811,0.0,0.0
2.7454909819639277,0.048247021350642114,0.01633950635686784,-0.008269733195210528,-0.015532135629117176,-0.14925712902791977,0.0,0.0
2.7655310621242486,0.0485179379992292,0.013545832429354409,-0.008545216007662,-0.013774140622573644,-0.07869108292206138,0.0,0.0
2.785571142284569,0.048760596711140795,0.012132935595579573,-0.008828553811911072,-0.014166890212453577,-0.13667497135831097,0.0,0.0
2.8056112224448895,0.048952452000158554,0.00959276445088779,-0.00908761584605066,-0.01295310170697938,-0.12116563540442794,0.0,0.0
2.8256513026052104,0.049099630243384956,0.007358912161320247,-0.009333108005577394,-0.01227460797633672,-0.18937243905787593,0.0,0.0
2.845691382765531,0.04917558590938763,0.003797783300133642,-0.0095266812798794,-0.009678663715100247,-0.19064433778082074,0.0,0.0
2.8657314629258517,0.04917987817748713,0.00021461340497513177,-0.009668812525162072,-0.007106562264133644,-0.1883996162990979,0.0,0.0
2.885771543086172,0.0491134237450049,-0.0033227216241117122,-0.009761711182099403,-0.004644932846866548,-0.19260421660161336,0.0,0.0
2.905811623246493,0.04897460851646646,-0.006940761426921987,-0.009803503707898948,-0.0020896262899772434,-0.1938103677965775,0.0,0.0
2.9258517034068134,0.04876297380804929,-0.01058173542085879,-0.009793748158772587,0.00048777745631806623,-0.1928763473840917,0.0,0.0
2.9458917835671343,0.04847888130033697,-0.014204625385615932,-0.009732929356247574,0.003040940126250629,-0.19032178258288468,0.0,0.0
2.9659318637274548,0.048123310406724316,-0.01777854468063289,-0.00962215799459687,0.0055385680825352866,-0.18915014375354144,0.0,0.0
2.9859719438877756,0.04769668656791154,-0.021331191940638875,-0.009461420793587885,0.008036860050449218,-0.18225726307984447,0.0,0.0
3.006012024048096,0.04720165346137391,-0.024751655326881516,-0.009253735950391563,0.010384242159816108,-0.17375522382539155,0.0,0.0
3.0260521042084165,0.04664146923733376,-0.028009211202007167,-0.009002766858641596,0.012548454587498363,-0.16709238904606824,0.0,0.0
3.0460921843687374,0.0460186619375679,-0.031140364988292903,-0.008710828120050574,0.014596936929551118,-0.1510586492086602,0.0,0.0
3.066132264529058,0.04533940461152598,-0.033962866302095746,-0.0083854574710806,0.016268532448498664,-0.14268849502453382,0.0,0.0
3.0861723446893787,0.0446068702155609,-0.036626719798254034,-0.008029499056325393,0.0177979207377604,-0.13612581928940973,0.0,0.0
