time,x,x_dot,theta,theta_dot,u,x_ref,theta_ref
0.0,1.323933275556446,-0.027810666633148684,0.08109572223282197,0.07202375733051888,9.99999999999996,0.0,0.0
0.02004008016032064,1.3272543274077584,0.16605259256562596,0.07721905686836861,-0.19383326822266758,9.999999999999972,0.0,0.0
0.04008016032064128,1.33445396279215,0.3599817692195759,0.0679987896587436,-0.4610133604812501,9.999999999972955,0.0,0.0
0.06012024048096192,1.3455353992466264,0.5540718227238268,0.05337218105554431,-0.7313304301599646,9.758606631086318,0.0,0.0
0.08016032064128256,1.36040939647313,0.7436998613251853,0.033381863727311445,-0.999515866411643,8.711725348871864,0.0,0.0
0.1002004008016032,1.3786737490745262,0.9132176300698079,0.008508147632436982,-1.2436858047437231,3.8626945042319925,0.0,0.0
0.12024048096192384,1.3984432359306063,0.988474342804005,-0.01857178194113188,-1.353996478678443,1.8474233309050239,0.0,0.0
0.1402805611222445,1.4189382750901083,1.024751957975097,-0.0468483002194347,-1.413825913915141,-4.199347264242817,0.0,0.0
0.16032064128256512,1.437806462717775,0.9434093813833282,-0.07296393642881618,-1.3057818104690737,-3.206669932215565,0.0,0.0
0.18036072144288576,1.4554422178584636,0.8817877570344387,-0.0976653738337716,-1.2350718702477705,-5.311449536975237,0.0,0.0
0.2004008016032064,1.4710316443353488,0.7794713238442603,-0.11988685568227352,-1.111074092425096,-2.4436347470362914,0.0,0.0
0.22044088176352705,1.4856996195675312,0.7333987616091208,-0.14143974682771,-1.077644557271824,-9.999999969512432,0.0,0.0
0.24048096192384769,1.496507751957776,0.540406619512241,-0.1580926479674306,-0.8326450569860309,-2.6032354244618165,0.0,0.0
0.2605210420841683,1.506344229303203,0.49182386727134264,-0.174232280444969,-0.8069816238769187,-6.262269250408675,0.0,0.0
0.280561122244489,1.5137889956240007,0.3722383160398891,-0.18785954298350827,-0.6813631269269631,-4.0310674898498196,0.0,0.0
0.3006012024048096,1.5197155042297767,0.2963254302888029,-0.20034832668867364,-0.6244391852582691,-4.347309062228655,0.0,0.0
0.32064128256513025,1.5240047098926717,0.2144602831447469,-0.21160123700732547,-0.5626455159325909,-5.047447796991187,0.0,0.0
0.3406813627254509,1.5263879785021466,0.11916343047374425,-0.2212949327287136,-0.48468478606940557,-4.0946976175910015,0.0,0.0
0.3607214428857715,1.5272391611554257,0.04255913266395407,-0.23003775568345128,-0.4371411477368845,-5.625030286967756,0.0,0.0
0.3807615230460922,1.5259661712189796,-0.0636494968223019,-0.2370200771723609,-0.3491160744454806,-5.082721207536436,0.0,0.0
0.4008016032064128,1.5227823388746091,-0.15919161721852879,-0.24259781345412135,-0.27888681408802285,-5.228493816766208,0.0,0.0
0.42084168336673344,1.5176329824357726,-0.2574678219418241,-0.2467270270582451,-0.20646068020618744,-6.106664513518421,0.0,0.0
0.4408817635270541,1.5101783835928315,-0.37272994214705724,-0.24894036976236247,-0.11066713520586977,-5.6640938545857145,0.0,0.0
0.4609218436873747,1.5005913576653724,-0.47935129637295887,-0.24950340200371413,-0.02815161206758207,-5.503427191442727,0.0,0.0
0.48096192384769537,1.4889345604111692,-0.5828398627101604,-0.24851079061182446,0.04963056959448309,-5.42163265603568,0.0,0.0
0.501002004008016,1.4752394413465935,-0.6847559532287932,-0.24600182009908078,0.12544852563718467,-4.8791008781874785,0.0,0.0
0.5210420841683366,1.4597159267171629,-0.7761757314715295,-0.24226553752533492,0.18681412868729355,-4.577562677815087,0.0,0.0
0.5410821643286573,1.4424799280722025,-0.8617999322480241,-0.23744684743497677,0.2409345045179076,-4.303083313431157,0.0,0.0
0.561122244488978,1.4236365224483885,-0.9421702811906985,-0.23166840304148614,0.28892221967453097,-4.100772271688995,0.0,0.0
0.5811623246492986,1.4032624690330928,-1.0187026707647804,-0.22500593493008245,0.33312340557018427,-4.109295179165879,0.0,0.0
0.6012024048096192,1.3813523098919007,-1.0955079570596016,-0.21740987257902464,0.37980311755288987,-3.927448312669983,0.0,0.0
0.6212424849699398,1.3579743171902607,-1.1688996350819947,-0.20893276405366867,0.42385542626779815,-3.675394247195208,0.0,0.0
0.6412825651302605,1.3332238405134056,-1.2375238338427565,-0.19966180320976418,0.46354804219522533,-3.354782643343688,0.0,0.0
0.6613226452905812,1.307222727613008,-1.3000556450198815,-0.18971880294665666,0.4971500131553759,-3.156776396896306,0.0,0.0
0.6813627254509018,1.2800449935182434,-1.3588867047382234,-0.17915179510814644,0.5283503919255108,-3.0076194863589616,0.0,0.0
0.7014028056112224,1.2517455017041546,-1.4149745907044418,-0.16797724732503588,0.5587273891555277,-2.6713670792661723,0.0,0.0
0.721442885771543,1.222451834347057,-1.4646833678548818,-0.15631579797641665,0.5830724674309615,-2.1415474669225936,0.0,0.0
0.7414829659318637,1.1923669284713403,-1.504245293785836,-0.1443975204149119,0.5959138780752369,-2.3372169209561124,0.0,0.0
0.7615230460921844,1.1614111179514317,-1.5477905259954314,-0.13203287034317857,0.6182325035866671,-1.863699781941172,0.0,0.0
0.781563126252505,1.1297653430340797,-1.5822887458676005,-0.11941653841494679,0.6308165964115886,-2.0405672949155136,0.0,0.0
0.8016032064128256,1.0973570566433621,-1.6204143195358804,-0.10636535818431951,0.6525590115313636,-1.6731181913386493,0.0,0.0
0.8216432865731462,1.064325766106984,-1.6515645268189076,-0.09300939321998715,0.6677982482166183,-2.2495479463164445,0.0,0.0
0.8416833667334669,1.030442878778568,-1.6941443664207985,-0.07892811468245688,0.7040639268765136,-1.4968716309764938,0.0,0.0
0.8617234468937875,0.9959978959225402,-1.7222491428013915,-0.06447016875416217,0.7228972964147355,-1.7845429361053928,0.0,0.0
0.8817635270541082,0.9608745152651958,-1.7561690328672184,-0.04937595986881712,0.7547104442672525,-0.8611042163730235,0.0,0.0
0.9018036072144289,0.925428748194181,-1.772288353550746,-0.03408909382206606,0.7643433023375528,-1.145453003364624,0.0,0.0
0.9218436873747494,0.8895454077936481,-1.7941670200266437,-0.01834693871910666,0.7871077551479702,-0.6680198128272155,0.0,0.0
0.9418837675350701,0.8534064309058633,-1.8069488443892396,-0.002329439458456397,0.800874963032513,-0.4009638533297392,0.0,0.0
0.9619238476953907,0.817111626081318,-1.8147402412272644,0.013907966539820089,0.8118702999138242,0.21105921426113722,0.0,0.0
0.9819639278557114,0.7808953737875111,-1.8108126146903467,0.030109353856229,0.8100693658204455,0.6187763385409466,0.0,0.0
1.002004008016032,0.7449123289050735,-1.7991522441218772,0.04613821269007752,0.801442941692426,1.206090318009836,0.0,0.0
1.0220440881763526,0.70938723252735,-1.7762548188861758,0.06175233543453366,0.7807061372228068,5.647611800501063,0.0,0.0
1.0420841683366733,0.6760484510037386,-1.666939076180572,0.07445792763465807,0.6352796100062207,4.598709282793746,0.0,0.0
1.062124248496994,0.6444828104068662,-1.5782820298436182,0.08494996939450218,0.5246020879922053,4.084325922644709,0.0,0.0
1.0821643286573146,0.6144863769776305,-1.4998216714617845,0.09359674697751852,0.4323388791508171,3.5299483268160703,0.0,0.0
1.1022044088176353,0.5858402279385297,-1.4323074519550372,0.10077742521921133,0.359033912084641,3.2003144652171223,0.0,0.0
1.122244488977956,0.5584135841328861,-1.3713321902821836,0.1067304628152991,0.29765187980438845,2.570428963789775,0.0,0.0
1.1422845691382766,0.5319590051442793,-1.3227289494303403,0.11186059880443364,0.25650679945672666,2.1616582533772397,0.0,0.0
1.1623246492985972,0.5063155692006489,-1.2821717971815205,0.11643833927226946,0.22888702339179076,2.0887522542663,0.0,0.0
1.1823647294589177,0.48145349177645425,-1.2431038712097324,0.12053538999591393,0.20485253618222357,2.1064747913782425,0.0,0.0
1.2024048096192383,0.4573784658534761,-1.2037512961489087,0.12416775282489101,0.18161814144885374,2.215169878627111,0.0,0.0
1.222444889779559,0.4341317812369315,-1.1623342308272289,0.12729571668622672,0.156398193066786,2.9497304837166283,0.0,0.0
1.2424849699398797,0.4119988116619448,-1.106648478749336,0.12951367259902394,0.11089779563986105,2.525797187307637,0.0,0.0
1.2625250501002003,0.39081363929905205,-1.0592586181446362,0.1310816590745213,0.07839932377486744,2.218300925854218,0.0,0.0
1.282565130260521,0.3704559438156343,-1.0178847741708867,0.13218792187713063,0.05531314013046623,1.989072972840752,0.0,0.0
1.3026052104208417,0.3508360569961357,-0.9809943409749297,0.1329723312753054,0.039220469908737926,1.9158118812463232,0.0,0.0
1.3226452905811623,0.3319251954865551,-0.9455430754790296,0.1334823381106419,0.02550034176682516,1.8851108176621378,0.0,0.0
1.342685370741483,0.313711244341035,-0.9106975572760061,0.13373898431308662,0.012832310122236906,1.7898629211717254,0.0,0.0
1.3627254509018036,0.2961570080378349,-0.8777118151600047,0.1337990608211359,0.00300382540246507,1.585970129025142,0.0,0.0
1.3827655310621243,0.27918300793702666,-0.8487000050404124,0.13378100405466523,-0.0009028383235339327,1.7225471837021102,0.0,0.0
1.4028056112224447,0.2628424758892529,-0.8170266023886874,0.1336056218785139,-0.00876910880756656,1.6026776760902504,0.0,0.0
1.4228456913827654,0.24708874706464,-0.7876864412306444,0.1333412007874339,-0.013221054554001204,2.3300526779769912,0.0,0.0
1.442885771543086,0.23220537204191066,-0.7441687511364677,0.13256488278097794,-0.03881590032279702,2.171817925796654,0.0,0.0
1.4629258517034067,0.21813091309827526,-0.7037229471817698,0.13136330291016526,-0.060078993540633355,1.9982622593847994,0.0,0.0
1.4829659318637274,0.20479808507351435,-0.6666414012380448,0.12982926564319164,-0.07670186334868115,1.8816752175222122,0.0,0.0
1.503006012024048,0.19216189971893094,-0.6318092677291706,0.12802048379121744,-0.09043909259870991,1.7358342695649502,0.0,0.0
1.5230460921843687,0.18016604354619328,-0.5997928086368833,0.12600990036524984,-0.1005291712983808,1.5683484149338076,0.0,0.0
1.5430861723446894,0.1687458198056455,-0.571011187027388,0.12388176676609862,-0.10640667995756128,1.490339125171896,0.0,0.0
1.56312625250501,0.15787143622259012,-0.5437191791527696,0.12166776426461591,-0.11070012507413551,1.4221266777711268,0.0,0.0
1.5831663326653307,0.14751694125566034,-0.5177247483464891,0.11939337414289945,-0.1137195060858227,1.4314521231016493,0.0,0.0
1.6032064128256511,0.13768662423662545,-0.4915158509517449,0.11703873097459465,-0.11773215841524041,1.3257869234246131,0.0,0.0
1.6232464929859718,0.1283399710617109,-0.4673326587457274,0.11465019417191001,-0.1194268401342318,1.3651219536357613,0.0,0.0
1.6432865731462925,0.11949300195560725,-0.4423484553051831,0.11218976415536291,-0.12302150082735468,1.3082593397608755,0.0,0.0
1.6633266533066131,0.11112425593699245,-0.41843730093074016,0.10967483606165998,-0.12574640468514664,1.2077574371864324,0.0,0.0
1.6833667334669338,0.10319527149970187,-0.39644922186452924,0.10714783241177463,-0.1263501824942676,1.2848390170417623,0.0,0.0
1.7034068136272544,0.09573682654263943,-0.3729222478531221,0.10454793722248117,-0.12999475946467334,1.158405689442601,0.0,0.0
1.723446893787575,0.08870037062957314,-0.3518227956533141,0.10193214719284995,-0.13078950148156118,1.1775479599448695,0.0,0.0
1.7434869739478958,0.08209411731111789,-0.33031266592276287,0.0992727536828121,-0.13296967550189193,1.1265772072942353,0.0,0.0
1.7635270541082164,0.07589895404814154,-0.3097581631488177,0.09658254583778321,-0.13451039225144484,1.0833678755249578,0.0,0.0
1.783567134268537,0.07009880232460104,-0.29000758617702443,0.0938696191516504,-0.1356463343066404,1.0143452679195535,0.0,0.0
1.8036072144288577,0.06466752251782452,-0.271563990338826,0.09115696349681576,-0.13563278274173168,0.9489988980610422,0.0,0.0
1.8236472945891782,0.05958040650167101,-0.25435580080767567,0.08846545327689496,-0.1345755109960398,0.6953451288628792,0.0,0.0
1.8436873747494988,0.054739297707742836,-0.2420554396964087,0.08592577898413381,-0.12698371463805755,0.8600483854283464,0.0,0.0
1.8637274549098195,0.050209153287773964,-0.22650722099844361,0.08342597618239758,-0.1249901400868111,0.9295976755380355,0.0,0.0
1.8837675350701402,0.04601781331673702,-0.20956699855184693,0.08090972041178131,-0.12581278853081404,0.9166190608887658,0.0,0.0
1.9038076152304608,0.042160936567630744,-0.1928438374553138,0.07836865681395244,-0.1270531798914432,0.8856167966870526,0.0,0.0
1.9238476953907815,0.038627158937760794,-0.17668888149349762,0.07580478246340894,-0.1281937175271751,0.8544090431439832,0.0,0.0
1.9438877755511021,0.03540504225560647,-0.16110583410771623,0.07322007760906588,-0.12923524271715287,0.8221328595129783,0.0,0.0
1.9639278557114228,0.03248273711133809,-0.14611525721341903,0.07061702135107212,-0.130152812899688,0.8345436954878411,0.0,0.0
1.9839679358717435,0.02986583059063308,-0.13084532603525054,0.0679719182397034,-0.13225515556843606,0.7631514199080847,0.0,0.0
2.004008016032064,0.027527231637758907,-0.1169299476437086,0.06530969566723174,-0.1331111286235829,0.6911944959521612,0.0,0.0
2.024048096192385,0.02543963219524901,-0.10437997212549477,0.06265551953758391,-0.1327088064823914,0.7903435432311477,0.0,0.0
2.0440881763527052,0.02364247123363785,-0.08985804808055803,0.0599347556119679,-0.13603819628080083,0.5859943266765371,0.0,0.0
2.064128256513026,0.022056808268048893,-0.0792831482794478,0.05724949754464424,-0.13426290336618274,0.640643320185912,0.0,0.0
2.0841683366733466,0.0207047312388901,-0.06760385145793973,0.05455088613889676,-0.13493057028737412,0.5638638828016183,0.0,0.0
2.1042084168336674,0.0195570582295198,-0.05738365046851489,0.05186671591192983,-0.13420851134834663,0.4836259485674945,0.0,0.0
2.124248496993988,0.01858325244959291,-0.04869028899634464,0.04922690740257255,-0.13199042546786385,0.37663671421688005,0.0,0.0
2.1442885771543083,0.017742325864199944,-0.04204632926964834,0.04667730250336853,-0.12748024496020105,0.3171190326730209,0.0,0.0
2.164328657314629,0.017011784596691944,-0.03652706337539993,0.044236594796481746,-0.12203538534433929,0.34197016480093323,0.0,0.0
2.1843687374749496,0.016402021271024303,-0.03048816628338213,0.041874874392955515,-0.11808602017631158,0.2966825606903163,0.0,0.0
2.2044088176352705,0.015896040442555832,-0.02529904142342356,0.03960371242051146,-0.11355809862220291,0.31912722832436835,0.0,0.0
2.224448897795591,0.01550324834134734,-0.01963960506042465,0.037395669998079445,-0.11040212112160085,0.5343817846610901,0.0,0.0
2.244488977955912,0.015308265623473748,-0.009749135893679576,0.03511100412759073,-0.11423329352443581,0.36082423772168704,0.0,0.0
2.2645290581162323,0.015244027241818139,-0.003211919082780429,0.032836746408104765,-0.11371288597429824,0.3435247121629139,0.0,0.0
2.284569138276553,0.015304434154368229,0.003020345627504509,0.030568663051138385,-0.11340416784831901,0.28950102710491527,0.0,0.0
2.3046092184368736,0.015469055812265507,0.008231082894863967,0.028324031696693452,-0.11223156772224664,0.21882101493668266,0.0,0.0
2.3246492985971945,0.01571095518806999,0.012094968790224111,0.02613002165979045,-0.10970050184515012,0.12162017530546804,0.0,0.0
2.344689378757515,0.015992831643399912,0.014093822766496242,0.024029635003197363,-0.10501933282965444,0.07460464942143835,0.0,0.0
2.3647294589178354,0.016296939878064923,0.015205411733250481,0.022037123539448648,-0.0996255731874357,0.06252565802657893,0.0,0.0
2.3847695390781563,0.016619136269055895,0.016109819549548626,0.020146990241481703,-0.09450666489834726,0.0434174927233987,0.0,0.0
2.4048096192384767,0.016952505166117855,0.016668444853097947,0.018358494350762533,-0.08942479453595847,0.024998023789384573,0.0,0.0
2.4248496993987976,0.017290370655505826,0.016893274469398544,0.016671133382016576,-0.08436804843729778,0.06445917080560518,0.0,0.0
2.444889779559118,0.01764861401624852,0.01791216803713471,0.015051189441826558,-0.08099719700950088,0.03719857308284037,0.0,0.0
2.464929859719439,0.018017061410996273,0.018422369737387624,0.013504393119516747,-0.07733981611549053,0.011482693621412372,0.0,0.0
2.4849699398797593,0.018386120831666086,0.018452971033490702,0.012036033237300863,-0.07341799411079425,-0.010368824834884296,0.0,0.0
2.50501002004008,0.01874768577235267,0.018078247034329375,0.010649633202599729,-0.06932000173505667,-0.023036250413807982,0.0,0.0
2.5250501002004007,0.019097210117691523,0.01747621726694264,0.00934386130372939,-0.06528859494351694,-0.03793374691553254,0.0,0.0
2.5450901803607215,0.019429254474234946,0.016602217827171247,0.008119198655169083,-0.06123313242801537,-0.05026978490447426,0.0,0.0
2.565130260521042,0.019739355789461312,0.015505065761318363,0.006975139470108714,-0.05720295925301848,-0.06283392878960313,0.0,0.0
2.5851703406813624,0.02002293893909893,0.014179157481880974,0.005911819591250072,-0.05316599394293211,-0.07067500795731702,0.0,0.0
2.6052104208416833,0.020277248752315156,0.012715490660811256,0.004927121108048108,-0.04923492416009816,-0.08213291191238559,0.0,0.0
2.6252505010020037,0.02049809618229478,0.011042371498981254,0.004021537498537864,-0.0452791804755122,-0.13076240048475846,0.0,0.0
2.6452905811623246,0.020666764228419364,0.00843340230622918,0.0032178052515486853,-0.040186612349458944,-0.11671581220659398,0.0,0.0
2.665330661322645,0.020788964522946686,0.006110014726366185,0.0025026395792192456,-0.035758283616471986,-0.11214852140768765,0.0,0.0
2.685370741482966,0.020866684277618477,0.003885987733589568,0.001868859147319655,-0.03168902159497953,-0.1045623707587123,0.0,0.0
2.7054108216432864,0.02090306543372079,0.0018190578051156718,0.0013080297959530613,-0.02804146756832969,-0.09882223511514517,0.0,0.0
2.7254509018036073,0.020900508673209986,-0.00012783802554025233,0.0008132571970774597,-0.02473862994378008,-0.09213641183853584,0.0,0.0
2.7454909819639277,0.020861764784949863,-0.0019371944130061136,0.0003775103325832624,-0.021787343224709863,-0.08693177530557206,0.0,0.0
2.7655310621242486,0.020788989647266002,-0.0036387568841930056,-5.003171560130583e-06,-0.01912567520716965,-0.08257091750073071,0.0,0.0
2.785571142284569,0.020683994619182976,-0.005249751404151255,-0.0003392464276591822,-0.01671216280495258,-0.07977349741845342,0.0,0.0
2.8056112224448895,0.02054796713186847,-0.006801374365725172,-0.0006289635953512453,-0.014485858384603152,-0.07569976400974134,0.0,0.0
2.8256513026052104,0.020382579905776976,-0.008269361304574766,-0.0008783646668456993,-0.0124700535747227,-0.09330005748664048,0.0,0.0
2.845691382765531,0.020181036336187973,-0.010077178479450083,-0.0010787266770057812,-0.010018100508004096,-0.07920433342659695,0.0,0.0
2.8657314629258517,0.019948894374249283,-0.01160709809693456,-0.001239558743191341,-0.008041603309277986,-0.07695877347852642,0.0,0.0
2.885771543086172,0.019687076397567345,-0.013090898834096818,-0.0013631886763366748,-0.0061814966572666915,-0.07025376725560752,0.0,0.0
2.905811623246493,0.019398234312035724,-0.014442104276581089,-0.0014543183434719028,-0.004556483356761401,-0.06383297110281913,0.0,0.0
2.9258517034068134,0.019084899801264564,-0.015666725538557927,-0.0015172784064474867,-0.0031480031487791937,-0.05246494680573221,0.0,0.0
2.9458917835671343,0.018751527011160545,-0.016668639505201026,-0.0015591158802468988,-0.0020918736899706103,-0.05072251840747403,0.0,0.0
2.9659318637274548,0.018398807875043652,-0.017635956805844632,-0.0015811138676386247,-0.0010998993695862948,-0.04694011026226588,0.0,0.0
2.9859719438877756,0.01802822469250035,-0.018529159127165053,-0.001585623694653105,-0.00022549135072402076,-0.04357056620789006,0.0,0.0
3.006012024048096,0.017641093639946825,-0.019356552627676316,-0.0015746448916672266,0.0005489401492939221,-0.0411452064497563,0.0,0.0
3.0260521042084165,0.01723835800884843,-0.020136781554919735,-0.001549526994953109,0.001255894835705883,-0.07413966927193663,0.0,0.0
3.0460921843687374,0.016807135302166275,-0.021561135334107848,-0.0014908107502139463,0.0029358122369581314,-0.062457865892650344,0.0,0.0
3.066132264529058,0.016351967232614714,-0.022758403477578137,-0.0014049594244746927,0.004292566286962675,-0.043277529418340524,0.0,0.0
3.0861723446893787,0.015880313857646055,-0.02358266874843304,-0.0013026516090193668,0.0051153907727663,-0.035306672795067,0.0,0.0
3.106212424849699,0.015395256287322894,-0.024252878516158042,-0.0011879048812064807,0.005737336390644304,-0.027914685322246807,0.0,0.0
