time,x,x_dot,theta,theta_dot,u,x_ref,theta_ref
0.0,1.459190348066346,0.07106050298641181,0.12440935951373688,-0.04771072771670468,9.999999999999998,0.0,0.0
0.02004008016032064,1.464474181776174,0.264191685491404,0.11843876671835664,-0.29852963976901226,9.999999999997552,0.0,0.0
0.04008016032064128,1.473622903453913,0.45743608388695206,0.10740941081456334,-0.5514677951896644,9.999999999999998,0.0,0.0
0.06012024048096192,1.486640719264105,0.6508907905096001,0.09124342326432963,-0.808299377511686,9.999999999999998,0.0,0.0
0.08016032064128256,1.5035335959962752,0.8446438366085176,0.06982807156300647,-1.0707675850661584,7.750974036815023,0.0,0.0
0.1002004008016032,1.523431645642689,0.9949024823206871,0.044328753803427816,-1.2749658879789325,9.999999999999043,0.0,0.0
0.12024048096192384,1.547220113195798,1.1894233776554566,0.013263588230528325,-1.5532582786449745,0.18224528085690217,0.0,0.0
0.1402805611222445,1.5710765196860326,1.192820324511723,-0.017825474236511343,-1.5544531233519834,3.362151369152481,0.0,0.0
0.16032064128256512,1.5962491627156599,1.2586321514813636,-0.05099208761632014,-1.65833066899044,-9.84267452428206,0.0,0.0
0.18036072144288576,1.6175935207969634,1.0672179040651724,-0.07872683613601458,-1.3867374259847223,5.0175225320557715,0.0,0.0
0.2004008016032064,1.6409144750557545,1.1660477129395532,-0.10987759633958848,-1.5575380101786949,-2.93741642710663,0.0,0.0
0.22044088176352705,1.663116208666043,1.1100866805144267,-0.14000507028843143,-1.506373697442147,-1.953856923062164,0.0,0.0
0.24048096192384769,1.6845899628562206,1.0736877095088846,-0.1698719656071654,-1.4933447659366976,-7.4803806658166305,0.0,0.0
0.2605210420841683,1.7031910851311245,0.9300561137451973,-0.19648801623141648,-1.3308025312125547,-2.4391061420133084,0.0,0.0
0.280561122244489,1.7208910522472274,0.8849983558051395,-0.2229263845368983,-1.3219184152740906,-6.044467152832388,0.0,0.0
0.3006012024048096,1.736294782533249,0.7701865143010834,-0.2473068926139682,-1.2190254038534947,-5.908604891887711,0.0,0.0
0.32064128256513025,1.7494635487031562,0.6584383084953588,-0.26987747009098073,-1.128528873850625,-7.377772919999201,0.0,0.0
0.3406813627254509,1.759834885672252,0.5185668484547974,-0.28997302253790525,-1.0047776223462248,-7.47954731236367,0.0,0.0
0.3607214428857715,1.7673773226915144,0.37712185096311446,-0.3076851149166716,-0.8856046189383177,-8.085414690099611,0.0,0.0
0.3807615230460922,1.7718632172462985,0.22429472773920808,-0.32281010353419715,-0.756249430876277,-8.471888875241465,0.0,0.0
0.4008016032064128,1.7731493996502785,0.06430912019899834,-0.33525043919673003,-0.6220167831266445,-8.532730444450282,0.0,0.0
0.42084168336673344,1.7712179274315338,-0.09657361093723024,-0.3450691849748977,-0.490937288908383,-9.999999999981304,0.0,0.0
0.4408817635270541,1.765505480798537,-0.28562233164983314,-0.3515418607430578,-0.3236337884080053,-9.999999999999062,0.0,0.0
0.4609218436873747,1.756015488264535,-0.4744996267001137,-0.35472156461310184,-0.15898519350220006,-9.999999712898829,0.0,0.0
0.48096192384769537,1.7427497300583386,-0.6632879103098154,-0.3546345582625063,0.0043503175297767704,-9.135182819725065,0.0,0.0
0.501002004008016,1.7260428661464828,-0.8353431955927891,-0.3517506500190773,0.1441954121714506,-8.64642981471753,0.0,0.0
0.5210420841683366,1.7060827505934024,-0.9980057776540227,-0.34631315617022984,0.27187469244237383,-7.088043410988382,0.0,0.0
0.5410821643286573,1.6834700706859103,-1.130633995374606,-0.33912998994606547,0.3591583112082188,-5.558076049692719,0.0,0.0
0.561122244488978,1.6587942661304056,-1.2337902277752284,-0.3309850780012348,0.40724559724153425,-3.895689150278969,0.0,0.0
0.5811623246492986,1.63269628683502,-1.304898964769274,-0.3227336101043736,0.4125733948430589,-4.34021619450482,0.0,0.0
0.6012024048096192,1.6050015497841732,-1.3847368525423494,-0.31407581781555727,0.43288961444081914,-2.6620627138024577,0.0,0.0
0.6212424849699398,1.5763577216789746,-1.4321914052599274,-0.3058802943190786,0.4097761748239346,-8.690992962683037,0.0,0.0
0.6412825651302605,1.5444255682066028,-1.5966076736185832,-0.29475373015717,0.5563282080954297,-8.745178325055525,0.0,0.0
0.6613226452905812,1.509179193905826,-1.7623187150388355,-0.2805802988523679,0.7086715652401033,-7.769886274636767,0.0,0.0
0.6813627254509018,1.4709908593816279,-1.9094167262099164,-0.2637963774202111,0.8391960716078397,-6.315965242666012,0.0,0.0
0.7014028056112224,1.4304182952595341,-2.028628206104691,-0.24509422195320824,0.9351077733501435,-5.099955686763101,0.0,0.0
0.721442885771543,1.387927188659728,-2.1245553299903053,-0.22502787904875493,1.0033171452226655,-4.511547657495429,0.0,0.0
0.7414829659318637,1.3437396977048726,-2.2093745477427693,-0.20379386876134908,1.0617005143702922,-4.142900131468037,0.0,0.0
0.7615230460921844,1.2979925700714057,-2.2873563816733475,-0.1814595347861338,1.116716698760764,-2.6315841952062105,0.0,0.0
0.781563126252505,1.251267346643112,-2.336261171414687,-0.15874352037252681,1.1358007206803498,-3.4890332725153455,0.0,0.0
0.8016032064128256,1.2032237826730758,-2.4021781985018014,-0.13500499466721164,1.186926285265759,-1.5734854896596586,0.0,0.0
0.8216432865731462,1.1546014995120477,-2.431114158051405,-0.11119775219845573,1.1903621234377948,-2.12689705609002,0.0,0.0
0.8416833667334669,1.1051785100229192,-2.4711494744564204,-0.08684970226963082,1.2174024964412462,-1.5204688635689383,0.0,0.0
0.8617234468937875,1.0551847690133065,-2.4996870504806337,-0.06215900051442044,1.234535087760519,-1.0405830709595418,0.0,0.0
0.8817635270541082,1.0048009994107039,-2.5191884801301314,-0.03724978191160873,1.2454609301405857,-0.1819708588088229,0.0,0.0
0.9018036072144289,0.9543557664417183,-2.5222616484492804,-0.012467331053509171,1.239122542904978,0.4302192856594399,0.0,0.0
0.9218436873747494,0.9040816140484563,-2.5137076196630974,0.011985418940119601,1.2226374996814386,2.018497675659399,0.0,0.0
0.9418837675350701,0.8545920382520114,-2.474478789822251,0.03533255215258321,1.1673566606231804,2.5262352567466544,0.0,0.0
0.9619238476953907,0.8060789962539363,-2.425652099903752,0.05742429569438978,1.1045871770903284,3.324078668945894,0.0,0.0
0.9819639278557114,0.758847730202541,-2.3615633025697615,0.07793500195040885,1.0255353128009534,3.240834571575625,0.0,0.0
1.002004008016032,0.7128599200778608,-2.29939050623401,0.09704485547296396,0.9554926761277553,3.500561149244242,0.0,0.0
1.0220440881763526,0.6682112844837528,-2.2324317797054025,0.114726020181911,0.8840582354473516,3.5799419084318993,0.0,0.0
1.0420841683366733,0.6249274764632136,-2.16419040102696,0.1310473617474382,0.81606707827636,4.036805774255859,0.0,0.0
1.062124248496994,0.5831815785866101,-2.08729489383017,0.1458509216115125,0.7401779932037152,4.192779963013421,0.0,0.0
1.0821643286573146,0.5430296884809633,-2.007594505282337,0.15914436606942925,0.6646722228958372,4.409162223562572,0.0,0.0
1.1022044088176353,0.504551809999716,-1.9238939240623645,0.17089131462151702,0.5873474276043888,4.488201937052864,0.0,0.0
1.122244488977956,0.467774856935159,-1.8388476532278504,0.18112494266045662,0.5116814019469794,4.535485782477033,0.0,0.0
1.1422845691382766,0.43271382836826155,-1.7530514283448722,0.1898869092427765,0.4380983291159948,4.519090691416286,0.0,0.0
1.1623246492985972,0.399359398240068,-1.6677215064096789,0.19724570509482514,0.3679397926024315,4.441267767020876,0.0,0.0
1.1823647294589177,0.3676788009688962,-1.5840298635585903,0.20329555187550802,0.3024923390341438,4.358984965927792,0.0,0.0
1.2024048096192383,0.3376379864021434,-1.5020407283376418,0.20812430186976097,0.2414374997126476,4.239323541758718,0.0,0.0
1.222444889779559,0.3091887843294185,-1.4224601036362443,0.2118328085450735,0.1854253337656261,6.386619431521886,0.0,0.0
1.2424849699398797,0.28316518921103867,-1.3011797559189902,0.21322196532621723,0.06945783905718639,5.155269148767323,0.0,0.0
1.2625250501002003,0.2590876806789383,-1.2038754266050191,0.21300336990227006,-0.01092977119735819,4.293328849833035,0.0,0.0
1.282565130260521,0.23662105299480812,-1.1233313842065082,0.21166677030088454,-0.06682998006927612,3.70514704185605,0.0,0.0
1.3026052104208417,0.21553695105415413,-1.0542050970326995,0.20953848729306238,-0.10641415039110896,3.2241172523883854,0.0,0.0
1.3226452905811623,0.19564892672050407,-0.9944012166825026,0.2068787527122213,-0.13298672904205372,2.328644285069421,0.0,0.0
1.342685370741483,0.17660943156956785,-0.9519747575468118,0.20418117657142607,-0.13487880703976263,2.366983621860871,0.0,0.0
1.3627254509018036,0.15843415622510998,-0.9087637672228929,0.20140650775018934,-0.13873344106183658,2.626059040879794,0.0,0.0
1.3827655310621243,0.14122470448174623,-0.8604725871681865,0.19838881981077477,-0.15088439697072864,2.5028939018921683,0.0,0.0
1.4028056112224447,0.12493403983435256,-0.8145332323696837,0.19517899303677938,-0.1604913386997691,2.2049269751937426,0.0,0.0
1.4228456913827654,0.10944714648735834,-0.7743446673497107,0.1919268073694575,-0.16260928336609454,3.6688286617519035,0.0,0.0
1.442885771543086,0.09533469503606644,-0.7056225725645954,0.18777299153935792,-0.20769079150497882,2.895557004089527,0.0,0.0
1.4629258517034067,0.08229701753978658,-0.6518838748139928,0.18313328479542482,-0.23198533719665568,2.522248462798764,0.0,0.0
1.4829659318637274,0.07019019403983853,-0.605341174997402,0.17819164924396796,-0.24708177757284203,2.0997013907564757,0.0,0.0
1.503006012024048,0.05885117403296955,-0.5669510003434489,0.1731588326005102,-0.25164083217288763,1.6881019280650553,0.0,0.0
1.5230460921843687,0.04812113886307444,-0.5365017584947555,0.16823922201266373,-0.24598052939232354,1.4182265424329032,0.0,0.0
1.5430861723446894,0.037896375660686724,-0.5112381601193857,0.1635568425542404,-0.23411897292116618,1.521031058831193,0.0,0.0
1.56312625250501,0.028218223029927197,-0.48390763153797633,0.1590228289915925,-0.22670067813239586,1.5901511534724244,0.0,0.0
1.5831663326653307,0.01911487641469589,-0.45516733076156524,0.15456855372951825,-0.2227137631037126,1.5894748547378446,0.0,0.0
1.6032064128256511,0.010587332626802441,-0.4263771893946725,0.15016608729750078,-0.22012332160087364,1.528033282619198,0.0,0.0
1.6232464929859718,0.0026129045122647698,-0.3987214057268836,0.14582290907716508,-0.2171589110167848,1.6507495582243579,0.0,0.0
1.6432865731462925,-0.004759362284069452,-0.36861333981671107,0.14144050293114835,-0.21912030730083634,1.436830267409472,0.0,0.0
1.6633266533066131,-0.01161156763008058,-0.3426102673005564,0.13711465923749028,-0.21629218468290412,1.4028628416385251,0.0,0.0
1.6833667334669338,-0.017955720012589882,-0.3172076191254652,0.13283756843395766,-0.21385454017663108,1.31781773860907,0.0,0.0
1.7034068136272544,-0.02382374792775965,-0.29340139575848834,0.1286313283732427,-0.2103120030357477,1.3209250212979387,0.0,0.0
1.723446893787575,-0.029213246672012225,-0.2694749372126287,0.12446746636694793,-0.20819310031473845,1.2647765627831535,0.0,0.0
1.7434869739478958,-0.03414491724800633,-0.2465835287997051,0.120352124938059,-0.2057670714444463,1.1722673131958201,0.0,0.0
1.7635270541082164,-0.0386536503832153,-0.2254366567604486,0.11631288215377766,-0.2019621392140663,1.0567806208080863,0.0,0.0
1.783567134268537,-0.042783320806094774,-0.20648352114397392,0.1123911923622068,-0.1960844895785438,0.9787702859699656,0.0,0.0
1.8036072144288577,-0.046563231978455834,-0.18899555861805292,0.10860755726833314,-0.18918175469368237,0.9453050494078026,0.0,0.0
1.8236472945891782,-0.050005361700981986,-0.17210648612630766,0.10495750953028879,-0.18250238690221776,0.826924363098959,0.0,0.0
1.8436873747494988,-0.053154835021813104,-0.1574736660415558,0.10148679851406066,-0.17353555081140654,0.7832752319137097,0.0,0.0
1.8637274549098195,-0.05602769255281107,-0.14364287654989832,0.09819890302550395,-0.16439477442783526,0.8884628855970805,0.0,0.0
1.8837675350701402,-0.05858198774742279,-0.12771475973058602,0.09501188506280726,-0.15935089813483452,0.9871504186495205,0.0,0.0
1.9038076152304608,-0.06077833000386799,-0.1098171128222598,0.09184817452394999,-0.15818552694286375,1.1285151812466885,0.0,0.0
1.9238476953907815,-0.06256068536492987,-0.08911776805309403,0.08860545874556662,-0.1621357889191683,1.1300737559387874,0.0,0.0
1.9438877755511021,-0.06392751390211394,-0.06834142685920361,0.08526227926669279,-0.16715897394369145,1.0276162421458825,0.0,0.0
1.9639278557114228,-0.06491781408606101,-0.04951500919735341,0.08185713265975292,-0.17025733034699336,0.9973630509379815,0.0,0.0
1.9839679358717435,-0.06554240835613014,-0.031229713503455967,0.07838608777534214,-0.17355224422053867,1.005444159592875,0.0,0.0
2.004008016032064,-0.06579714834766347,-0.012736999576666717,0.07482246119770965,-0.17818132888162483,0.9051676388884958,0.0,0.0
2.024048096192385,-0.06572012451452587,0.0038511916568801235,0.07120216234194124,-0.18101494278842048,0.9615730233406895,0.0,0.0
2.0440881763527052,-0.06528829591172522,0.02159143014003282,0.06746939018244863,-0.1866386079746303,0.8179326045569582,0.0,0.0
2.064128256513026,-0.06455662310618816,0.03658364027685296,0.06368432680405053,-0.1892531689199045,0.7460345420461838,0.0,0.0
2.0841683366733466,-0.06355206948550632,0.050227681034092204,0.05986500414969985,-0.1909661327175341,0.5640015437595218,0.0,0.0
2.1042084168336674,-0.06234455686965727,0.06037563079245235,0.05609355445293857,-0.18857248483806377,0.48433388028756613,0.0,0.0
2.124248496993988,-0.06096409018389868,0.0690233342879298,0.052392694733563394,-0.18504298596875896,0.4504130947212768,0.0,0.0
2.1442885771543083,-0.059422848039861115,0.07706210720187824,0.04875888896122405,-0.18169028861696696,0.39076394335774073,0.0,0.0
2.164328657314629,-0.05774306625201344,0.08398908939238386,0.04520406001806852,-0.17774144715777646,0.3171290364359857,0.0,0.0
2.1843687374749496,-0.05595246065336158,0.08953027993259277,0.041748812294407314,-0.17276238618306036,0.23444624587101381,0.0,0.0
2.2044088176352705,-0.054082306699655754,0.09350769768529145,0.03841967890019518,-0.16645666971060671,0.2124259172951749,0.0,0.0
2.224448897795591,-0.05214024727582179,0.09710297119169821,0.03520854528439871,-0.16055668078982369,0.26491251163586904,0.0,0.0
2.244488977955912,-0.050104886566696344,0.10176803545627244,0.03206448802996204,-0.15720286272183318,0.19866809905746974,0.0,0.0
2.2645290581162323,-0.048001174635837196,0.10518559654295748,0.029006409791152463,-0.15290391194047895,0.1636902589293041,0.0,0.0
2.284569138276553,-0.045841886335017144,0.10796441504100247,0.026035481370105914,-0.1485464210523274,0.09405054246484254,0.0,0.0
2.3046092184368736,-0.04365334666302319,0.10942698359969798,0.023173693885272455,-0.14308937424167287,0.03816905576472762,0.0,0.0
2.3246492985971945,-0.04145654355872572,0.10984015521487338,0.020435686342121617,-0.13690037715754189,-0.003877591767781144,0.0,0.0
2.344689378757515,-0.03926710188812063,0.1094720835302544,0.017828790171541875,-0.1303448085289872,-0.034416604725888256,0.0,0.0
2.3647294589178354,-0.037096193441591194,0.10854542232647199,0.015354434313667446,-0.12371779289372141,-0.06310782943578444,0.0,0.0
2.3847695390781563,-0.03495430668709367,0.10709433772487621,0.013013802810897746,-0.11703157513848506,-0.08868039992723824,0.0,0.0
2.4048096192384767,-0.032850751200456635,0.10517777433185199,0.010807098637217101,-0.11033520868403221,-0.1153556101770637,0.0,0.0
2.4248496993987976,-0.030795304975476653,0.10277231124899898,0.008736013882833932,-0.10355423771915846,-0.22083995732356548,0.0,0.0
2.444889779559118,-0.02882853787352097,0.09833835509778416,0.006849194679447496,-0.09434096016932178,-0.21047539517936065,0.0,0.0
2.464929859719439,-0.026945865450862264,0.09413362113293522,0.005128683543558512,-0.0860255567944492,-0.19393122567455903,0.0,0.0
2.4849699398797593,-0.02514033920367257,0.09027631235948463,0.0035539555615330233,-0.07873639910127442,-0.19020288852546335,0.0,0.0
2.50501002004008,-0.02341005326902545,0.08651429673235585,0.00211290100439489,-0.07205272785690665,-0.1928076286553082,0.0,0.0
2.5250501002004007,-0.0217556112922093,0.08272209884080761,0.0007979571595243822,-0.0657471922435254,-0.19293553883450323,0.0,0.0
2.5450901803607215,-0.020176686445208907,0.07894624235001964,-0.00039909272281232647,-0.05985249411683543,-0.19168788587732216,0.0,0.0
2.565130260521042,-0.01867244884046661,0.07521188023711488,-0.001486526925631291,-0.05437171014094823,-0.19022799186237754,0.0,0.0
2.5851703406813624,-0.017242017137800134,0.07152158513332384,-0.002472056862926118,-0.049276496864741344,-0.1917124236773736,0.0,0.0
2.6052104208416833,-0.015885688124289234,0.06781645067554497,-0.003361029134212679,-0.04444861356432804,-0.1928778725587261,0.0,0.0
2.6252505010020037,-0.014603661764661784,0.06410131798137252,-0.004158368139086495,-0.039866950243690816,-0.29417377889810886,0.0,0.0
2.6452905811623246,-0.013435237738884305,0.05842120128887396,-0.004809847413015333,-0.03257396369644188,-0.2475783224952727,0.0,0.0
2.665330661322645,-0.012362046507838606,0.05365956155228499,-0.005346832499832103,-0.0268492543408385,-0.2480019254202493,0.0,0.0
2.685370741482966,-0.01138409939820005,0.04889735548192783,-0.005772462269077959,-0.021281488462292802,-0.2230802213544356,0.0,0.0
2.7054108216432864,-0.01049154928452367,0.044627505683819,-0.006103999376087382,-0.016576855350471202,-0.19885290993633098,0.0,0.0
2.7254509018036073,-0.009674846997384115,0.04083511435697772,-0.006357706799789402,-0.012685371185100953,-0.1853563546599711,0.0,0.0
2.7454909819639277,-0.008928653098276937,0.03730969495535892,-0.006543079552231637,-0.009268637622111804,-0.16638276147142766,0.0,0.0
2.7655310621242486,-0.008245510468289245,0.034157131499384624,-0.0066723855004965716,-0.006465297413246721,-0.15251923785712376,0.0,0.0
2.785571142284569,-0.0076199721428083424,0.03127691627404514,-0.0067545497146424965,-0.0041082107072962296,-0.13149557651823077,0.0,0.0
2.8056112224448895,-0.007043810611538725,0.028808076563480868,-0.006802388330853756,-0.002391930810562982,-0.11651786362757871,0.0,0.0
2.8256513026052104,-0.0065111674854305725,0.026632156305407644,-0.006824964373622002,-0.0011288021384122868,-0.1528213730216887,0.0,0.0
2.845691382765531,-0.006036202819879161,0.023748233277570585,-0.00680118419215847,0.001189009073176578,-0.15438840916932664,0.0,0.0
2.8657314629258517,-0.00561953492817918,0.02083339458499906,-0.006729981166370262,0.0035601512894103916,-0.12927269270739417,0.0,0.0
2.885771543086172,-0.005251383448582235,0.01840757397984725,-0.006625597898686639,0.005219163384181105,-0.10011528923284403,0.0,0.0
2.905811623246493,-0.0049204003628487755,0.016549154286672977,-0.0065044319836946194,0.006058295749600986,-0.09141335561912678,0.0,0.0
2.9258517034068134,-0.004623224693141429,0.01485878348536731,-0.006370809593072091,0.006681119531126406,-0.10177258355320469,0.0,0.0
2.9458917835671343,-0.004363937171224033,0.012964376095869798,-0.0062178283403861515,0.007649062634296975,-0.08227319072934244,0.0,0.0
2.9659318637274548,-0.004134972500594811,0.011448233531461101,-0.006055929858335981,0.008094924102508535,-0.0909379603676558,0.0,0.0
2.9859719438877756,-0.00393975829869908,0.009760710094786558,-0.00587902463064198,0.008845261384700084,-0.08178524338291318,0.0,0.0
3.006012024048096,-0.0037747736560921987,0.008249232130344075,-0.0056913510435498155,0.009383679354608215,-0.0747210400001792,0.0,0.0
3.0260521042084165,-0.003637315739065309,0.006872895851344484,-0.005495857887512043,0.009774657801888614,-0.10779587270535045,0.0,0.0
3.0460921843687374,-0.003540347217838228,0.004848426061354039,-0.005271964786657244,0.011194655042739924,-0.07726432006517397,0.0,0.0
3.066132264529058,-0.003472018090872019,0.0034164563483104456,-0.0050361196707626645,0.011792255794728963,-0.07463794927922059,0.0,0.0
3.0861723446893787,-0.003431371085808646,0.002032350253168634,-0.004788371596417863,0.012387403717240082,-0.055340242488430225,0.0,0.0
3.106212424849699,-0.003410946762853062,0.0010212161477791898,-0.0045384467245586976,0.012496243592958272,-0.04498521888975146,0.0,0.0
