time,x,x_dot,theta,theta_dot,u,x_ref,theta_ref
0.0,0.7709734718606094,0.0631634222672115,-0.06223729688285734,-0.09103236486191624,1.2141087539728745,0.0,0.0
0.02004008016032064,0.7727281616072705,0.08773448733305747,-0.06515868009746682,-0.14606916073047438,1.6596705876978703,0.0,0.0
0.04008016032064128,0.7751488885672976,0.12103634800135452,-0.06945899921313019,-0.21501595578316834,0.6776865259096103,0.0,0.0
0.06012024048096192,0.7778537493408079,0.13524303867551477,-0.07459206147210944,-0.2566531129489622,-1.1505918221730658,0.0,0.0
0.08016032064128256,0.7801309986886662,0.11386246739291465,-0.07952381070744687,-0.24658746176687166,0.3532451263037448,0.0,0.0
0.1002004008016032,0.7825686237276585,0.12188125194961287,-0.08516202898036396,-0.2819109136458544,-2.971362120712752,0.0,0.0
0.12024048096192384,0.7838715069715907,0.0651441621966122,-0.08960519774287673,-0.22215843812563837,-1.3730160280443304,0.0,0.0
0.1402805611222445,0.7846643629414357,0.039642798492250754,-0.09381271589954941,-0.2103759078336339,-1.152031731538685,0.0,0.0
0.16032064128256512,0.7850345890890759,0.018511307382009824,-0.09793993709043469,-0.20636105954426381,-1.5469830519484518,0.0,0.0
0.18036072144288576,0.784829357245561,-0.010261592175739673,-0.10178325197069936,-0.19216574401323305,-1.2110751467902203,0.0,0.0
0.2004008016032064,0.7841807675651385,-0.032429484021124756,-0.1055624647091182,-0.188960636920942,-1.743097443845091,0.0,0.0
0.22044088176352705,0.782882463681914,-0.06491519416122335,-0.10899230462910423,-0.17149199599930104,-1.8081303834417959,0.0,0.0
0.24048096192384769,0.7809100953720689,-0.09861841549225898,-0.11205688247167775,-0.15322889212867646,-1.8171168198091165,0.0,0.0
0.2605210420841683,0.778261059629387,-0.13245178713409536,-0.11477056077316658,-0.13568391507444166,-2.058358172724974,0.0,0.0
0.280561122244489,0.7748421054148921,-0.17094771072474338,-0.11701062553549542,-0.11200323811644163,-2.507426175718654,0.0,0.0
0.3006012024048096,0.770478834934509,-0.2181635240191533,-0.11853080513283297,-0.07600897986687748,-3.014829410158538,0.0,0.0
0.32064128256513025,0.7649739114500124,-0.2752461742248296,-0.11904647902862023,-0.02578369478936276,-3.0653989944293363,0.0,0.0
0.3406813627254509,0.7583077871331603,-0.33330621584260745,-0.11853166469716028,0.025740716572996973,-2.895363272286125,0.0,0.0
0.3607214428857715,0.7505465930377904,-0.3880597047684976,-0.11708169106612511,0.07249868155175906,-2.916510293975542,0.0,0.0
0.3807615230460922,0.7416816440235332,-0.4432474507128562,-0.11467488647499569,0.12034022955647106,-2.7226275204707,0.0,0.0
0.4008016032064128,0.7317877901411041,-0.4946926941214576,-0.11140821016587579,0.16333381545599468,-2.5039092426402845,0.0,0.0
0.42084168336673344,0.72094931163817,-0.5419239251467028,-0.1073875784148865,0.2010315875494651,-1.7999271329688722,0.0,0.0
0.4408817635270541,0.709439479227943,-0.575491620511347,-0.10299617456906444,0.21957019229110294,-1.6452562008486857,0.0,0.0
0.4609218436873747,0.6973173157195036,-0.6061081754219731,-0.0982958819508495,0.23501463091074762,-1.379074650740473,0.0,0.0
0.48096192384769537,0.6846852487676865,-0.6316033475908513,-0.09341159072611017,0.24421456123696597,-1.2986233775713227,0.0,0.0
0.501002004008016,0.6715732416460624,-0.6556003560812071,-0.08835909468072226,0.2526248022693963,-1.3454654903256806,0.0,0.0
0.5210420841683366,0.6579615688138535,-0.6805836416104455,-0.0830790418695304,0.26400264055959294,-1.2363924491654048,0.0,0.0
0.5410821643286573,0.6438912456196748,-0.7035161597089322,-0.07760145286398232,0.27387945027740423,-1.275562948541142,0.0,0.0
0.561122244488978,0.629345414273174,-0.727291567325041,-0.07186874634044965,0.2866353261766332,-1.1717743869316506,0.0,0.0
0.5811623246492986,0.6143629049280442,-0.7491254672564877,-0.06590508259502999,0.2981831872709835,-1.102817896375072,0.0,0.0
0.6012024048096192,0.5989688997265569,-0.7697002600743706,-0.059712899311966654,0.3096091641531667,-0.9675552834056436,0.0,0.0
0.6212424849699398,0.5832143867676854,-0.7877256479435711,-0.05333193939914955,0.3190479956408551,-0.6952591369435159,0.0,0.0
0.6412825651302605,0.5672037708489378,-0.8005307959373804,-0.04688085823407694,0.3225540582536303,-0.5916416439542049,0.0,0.0
0.6613226452905812,0.5509756388451685,-0.8114066001884618,-0.04037945135721663,0.3250703438430156,-0.5344970131811217,0.0,0.0
0.6813627254509018,0.53455043409437,-0.821260237539928,-0.03382007920802839,0.3279686074594119,-0.44065950028839845,0.0,0.0
0.7014028056112224,0.5179629018221525,-0.8293766136108712,-0.027216206986622755,0.3301936110702818,-0.2685952902594968,0.0,0.0
0.721442885771543,0.50127830135343,-0.8342300234361272,-0.020626788900067146,0.3294709043277804,-0.11161149006040902,0.0,0.0
0.7414829659318637,0.48455601538444626,-0.8361142984491868,-0.014102091056391097,0.32623489218380247,0.016913860858501134,0.0,0.0
0.7615230460921844,0.46784434185287377,-0.8355836765786242,-0.0076761661000001365,0.321296247819548,0.08660968548817503,0.0,0.0
0.781563126252505,0.4511686502491595,-0.8337845801857149,-0.0013492859556688518,0.31634400721656425,0.22148919174746662,0.0,0.0
0.8016032064128256,0.4345797736105191,-0.82944383193202,0.00483952435422581,0.30944051549473306,0.3649325841793173,0.0,0.0
0.8216432865731462,0.41813192481410855,-0.8223924398205276,0.010845366025552791,0.300292083566349,1.711344330858683,0.0,0.0
0.8416833667334669,0.40234879211173963,-0.789156635118447,0.015918544610678355,0.2536589292562782,3.2169645460475556,0.0,0.0
0.8617234468937875,0.3878164375711486,-0.7266177270295507,0.01921050400983283,0.16459796995772363,2.203832369499463,0.0,0.0
0.8817635270541082,0.37413855788255745,-0.6838939844295567,0.02133466831540266,0.1062082152784915,1.0238035354800175,0.0,0.0
0.9018036072144289,0.3608540711758565,-0.664224335335049,0.02299460591294832,0.08299687987728292,0.2469934865090503,0.0,0.0
0.9218436873747494,0.3476593786033482,-0.6597346286254143,0.024655083946788003,0.08302390169198426,0.1274416635096407,0.0,0.0
0.9418837675350701,0.3345073543134374,-0.6576012144955393,0.02639648563777121,0.08707008454916045,0.48645583099347234,0.0,0.0
0.9619238476953907,0.32153758969426727,-0.6484882309585076,0.028019860141146505,0.0811687251687647,0.4322599319254133,0.0,0.0
0.9819639278557114,0.30872847122409414,-0.6404559235086574,0.02956714278593833,0.07736413223959125,0.47661337015939054,0.0,0.0
1.002004008016032,0.29609686172480415,-0.6315804749645003,0.031022165483854086,0.07275113489578777,0.4934563347832363,0.0,0.0
1.0220440881763526,0.28364891563656885,-0.6223973044117659,0.032384264773062395,0.06810496446041532,-0.5983828285668384,0.0,0.0
1.0420841683366733,0.2709582104696573,-0.6345352583455773,0.034300351706388434,0.09580434666630191,-0.20630844297332496,0.0,0.0
1.062124248496994,0.25817718823785735,-0.6390511115899967,0.03655327055304585,0.11264594233287098,0.43423962171463815,0.0,0.0
1.0821643286573146,0.24555514295899183,-0.631102263943276,0.03878278326369899,0.11147563553265684,0.5698421602402405,0.0,0.0
1.1022044088176353,0.23314434568725362,-0.6205398635869106,0.040923703211749554,0.10704599740252829,0.7076084492379148,0.0,0.0
1.122244488977956,0.22099793531085685,-0.6073205188198383,0.042909036312882946,0.09926665505666951,0.709611804124648,0.0,0.0
1.1422845691382766,0.20911612237807228,-0.594090646639228,0.04475015642259786,0.09205600548574573,0.8006416606325626,0.0,0.0
1.1623246492985972,0.1975338943163641,-0.5791114030854101,0.04640550831722398,0.08276759473130602,0.8699566775112711,0.0,0.0
1.1823647294589177,0.1862778184595741,-0.5628037928394987,0.04784505991984814,0.07197758013120789,0.924010554168922,0.0,0.0
1.2024048096192383,0.17536856918732663,-0.5454624636123737,0.04904633753740793,0.060063880877989806,0.8594444162384807,0.0,0.0
1.222444889779559,0.16478060855173907,-0.5293980317793787,0.05005465919174568,0.050416082716887606,0.7491119108404158,0.0,0.0
1.2424849699398797,0.15447059894850962,-0.5155004801614724,0.05094085132696505,0.04430960676096834,0.8036863634049998,0.0,0.0
1.2625250501002003,0.14445957769553588,-0.5005510626486861,0.051678638140139926,0.03688934065874382,0.8015422771307895,0.0,0.0
1.282565130260521,0.13474649572331787,-0.4856540986109002,0.05227393688362334,0.029764937174170572,0.8164472511531027,0.0,0.0
1.3026052104208417,0.12533699668703385,-0.47047495181420057,0.052721806177843236,0.022393464710994637,0.7902893676202616,0.0,0.0
1.3226452905811623,0.11622074609867603,-0.4558125294178915,0.05304035544242569,0.015927463229122606,0.7942667833518505,0.0,0.0
1.342685370741483,0.1073992039774023,-0.4410771060636868,0.05322927577920128,0.009446016838779268,0.7939594981280926,0.0,0.0
1.3627254509018036,0.09887219600090293,-0.4263503988249687,0.05328994116180665,0.0030332691302687427,0.7733554227548095,0.0,0.0
1.3827655310621243,0.09063166608078618,-0.4120264960058375,0.053234768441427896,-0.002758636018937717,0.760992957763838,0.0,0.0
1.4028056112224447,0.08267280690231449,-0.39794295892358456,0.05307062886260026,-0.0082069789413819,0.7510873052987962,0.0,0.0
1.4228456913827654,0.07499180101053189,-0.3840502945891297,0.052802270116386774,-0.013417937310674099,0.33455297280573254,0.0,0.0
1.442885771543086,0.0674262161175903,-0.3782792446470796,0.052671268415693195,-0.006550085034679025,0.379893233777951,0.0,0.0
1.4629258517034067,0.05999377889889234,-0.3716218609348977,0.052650317274642935,-0.0010475570525129603,0.5174347420025105,0.0,0.0
1.4829659318637274,0.052748156718770624,-0.3622811090060859,0.052658954244512016,0.0004318484934538935,0.658376845551403,0.0,0.0
1.503006012024048,0.04574433524598696,-0.3501910736391834,0.052614917406831614,-0.0022018418840199067,0.6593794831608722,0.0,0.0
1.5230460921843687,0.038982718293512575,-0.3380808476237189,0.05251734300189954,-0.004878720246603874,0.6871050019890271,0.0,0.0
1.5430861723446894,0.03247415091113591,-0.3254283691188333,0.05234942158175795,-0.00839607100707935,0.7071837160091713,0.0,0.0
1.56312625250501,0.02622651499939486,-0.31238179558705237,0.052098365122967984,-0.012552822939498217,0.7392092005429156,0.0,0.0
1.5831663326653307,0.020252377402745093,-0.2987068798324884,0.05174388228851414,-0.0177241417226921,0.7456552318602738,0.0,0.0
1.6032064128256511,0.01455435497108536,-0.28490112158298664,0.05127996771310333,-0.023195728770540464,0.7373557925202185,0.0,0.0
1.6232464929859718,0.009129343097631071,-0.27125059367271437,0.050708536895539155,-0.028571540878208682,0.11200616063815394,0.0,0.0
1.6432865731462925,0.003733524230968675,-0.2697909433331198,0.0503912524449297,-0.01586422253047271,0.6571257293946906,0.0,0.0
1.6633266533066131,-0.0014203312466041914,-0.2576927738786433,0.05000770022186297,-0.01917761115333677,0.38218684602632835,0.0,0.0
1.6833667334669338,-0.006439381897547415,-0.25095253254716116,0.04971605883482361,-0.01458206935196809,0.35797551751364143,0.0,0.0
1.7034068136272544,-0.01133299060901396,-0.24468043557332728,0.049528631912466425,-0.009371346117858979,0.499132995361313,0.0,0.0
1.723446893787575,-0.016046030425586603,-0.2356519908286322,0.04936178023576524,-0.008342583835059342,0.5851630128668325,0.0,0.0
1.7434869739478958,-0.020544888383802692,-0.22494289791080438,0.049164195717809375,-0.009879225897793489,0.6122625700097482,0.0,0.0
1.7635270541082164,-0.024818934715929407,-0.21370231660633568,0.04891880013368504,-0.012269779206216693,0.6090849167665366,0.0,0.0
1.783567134268537,-0.028869338774177855,-0.20252020291242245,0.04862589997398282,-0.014645007985111189,0.6160456425257738,0.0,0.0
1.8036072144288577,-0.032693300702430615,-0.19119809641263813,0.048279579120990665,-0.017316042649607566,0.6441733458818317,0.0,0.0
1.8236472945891782,-0.03627974678715804,-0.1793223042363713,0.047861218322522193,-0.020918039923423594,0.23566126654580744,0.0,0.0
1.8436873747494988,-0.039787942246772,-0.17540977298069788,0.04760683004744404,-0.012719413753907935,0.31058094705423617,0.0,0.0
1.8637274549098195,-0.04318858385594413,-0.17003208045860646,0.047471042091824796,-0.006789397780962239,0.4056392189518389,0.0,0.0
1.8837675350701402,-0.04644454477226403,-0.16279804581599489,0.0473974636013787,-0.003678924522304903,0.5042236702375891,0.0,0.0
1.9038076152304608,-0.049517340051062904,-0.15363976393994383,0.047328035364815474,-0.0034714118281610994,0.6816407121288128,0.0,0.0
1.9238476953907815,-0.052337728372119814,-0.1410194160528456,0.047158668075012115,-0.008468364490167907,0.6291784398548775,0.0,0.0
1.9438877755511021,-0.05492612988328607,-0.12942007555831303,0.04691894161592557,-0.011986322954326958,0.61447250436041,0.0,0.0
1.9639278557114228,-0.05728821345396119,-0.11810417853375606,0.046615933555429166,-0.015150403024820187,0.6654911366625077,0.0,0.0
1.9839679358717435,-0.05940398643911149,-0.10578864925751488,0.04621792278121923,-0.01990053871049672,0.6971819655080742,0.0,0.0
2.004008016032064,-0.061260969792788555,-0.09284916768385318,0.045703879251040025,-0.02570217650896027,0.7295761781231801,0.0,0.0
2.024048096192385,-0.06284637655389479,-0.0792703380553115,0.045051627859665364,-0.03261256956873301,0.4164729177486002,0.0,0.0
2.0440881763527052,-0.0642821819767394,-0.07179027114223092,0.04443999073782835,-0.030581856091850608,0.5233428992002169,0.0,0.0
2.064128256513026,-0.06552651356116192,-0.062216579221125924,0.043802663620258656,-0.03186635587848479,0.5556214640223587,0.0,0.0
2.0841683366733466,-0.06656659434711748,-0.052004039297777846,0.04311676184292601,-0.03429508886663242,0.5802311740661888,0.0,0.0
2.1042084168336674,-0.0673926254419696,-0.04130155474260605,0.04236357399776169,-0.03765939225821622,0.5753303524516554,0.0,0.0
2.124248496993988,-0.0680063027591845,-0.030683865860744945,0.04154120782258108,-0.04111830875903023,0.5870624296301112,0.0,0.0
2.1442885771543083,-0.06840281258396072,-0.01982549123881082,0.0406376142606203,-0.04517967809803927,0.6141523255844787,0.0,0.0
2.164328657314629,-0.06857132548458039,-0.00842564503098333,0.039631255300093746,-0.05031794802632768,0.5687493204914975,0.0,0.0
2.1843687374749496,-0.06852926768143736,0.002102890157151937,0.03854231069958108,-0.054447230025633314,0.5745528097697356,0.0,0.0
2.2044088176352705,-0.06827406202214041,0.012760282964846898,0.037360512475068115,-0.059089911225647995,0.5351588240014677,0.0,0.0
2.224448897795591,-0.06782074004911898,0.02266609865107199,0.03610142417316322,-0.06295441509524478,0.48855789582307313,0.0,0.0
2.244488977955912,-0.06718712344867817,0.031680830022040314,0.03478433666244297,-0.06585437553601249,0.48282198013897065,0.0,0.0
2.2645290581162323,-0.06637507240081489,0.040602552393163946,0.03340428939319802,-0.06900236346224746,0.4610776429466856,0.0,0.0
2.284569138276553,-0.0653926754130127,0.04911984939010918,0.03196528330508788,-0.07195030440550676,0.4362857294746362,0.0,0.0
2.3046092184368736,-0.0642491933568434,0.057174102808465646,0.030472730374970763,-0.07462764650585603,0.3997081342080019,0.0,0.0
2.3246492985971945,-0.06295847065705683,0.06453613498932823,0.02893859692889257,-0.0767066723039095,0.356682878228062,0.0,0.0
2.344689378757515,-0.06153685593415018,0.07108073614533217,0.027378359169706233,-0.07801188795931685,0.3249777060754271,0.0,0.0
2.3647294589178354,-0.05999627343733205,0.07702912484090657,0.025800712148668244,-0.07888235105189936,0.3067978297789881,0.0,0.0
2.3847695390781563,-0.05834336492149785,0.0826454257917097,0.02420633398913004,-0.07971890797691022,0.28110299433622615,0.0,0.0
2.4048096192384767,-0.05658769981128887,0.08778325551044935,0.022600192789449487,-0.08030705998402758,0.2574773784937994,0.0,0.0
2.4248496993987976,-0.054738036828653726,0.09248314913175695,0.02098597365797265,-0.08071095657384189,0.324817974653215,0.0,0.0
2.444889779559118,-0.05276763621623221,0.09852003062107569,0.019314112454992594,-0.08359306014900289,0.2787003741044882,0.0,0.0
2.464929859719439,-0.05069401439757191,0.10368109093301509,0.017601034002000287,-0.08565392264961538,0.23129859848071901,0.0,0.0
2.4849699398797593,-0.048535177312975346,0.10794185422982824,0.015863656372446956,-0.08686888147766664,0.1973247928058794,0.0,0.0
2.50501002004008,-0.04630388429618999,0.11156465083926766,0.01411089252335124,-0.0876381924547857,0.15883559822528512,0.0,0.0
2.5250501002004007,-0.04401465238463904,0.11446159557754775,0.012354200733939464,-0.08783458947058886,0.11954071825679177,0.0,0.0
2.5450901803607215,-0.04168231200099808,0.11661701918204763,0.010605487037101761,-0.08743568484188513,0.07828882984512417,0.0,0.0
2.565130260521042,-0.03932245961663568,0.11799261921812045,0.008877853579623233,-0.08638167287392644,0.03953656654742478,0.0,0.0
2.5851703406813624,-0.03694972240283662,0.11863686068995262,0.007183074199163229,-0.08473896902300022,0.004665410884525857,0.0,0.0
2.6052104208416833,-0.03457722248092597,0.11862499609553277,0.0055308602570368895,-0.08261069710631695,-0.024610868783468104,0.0,0.0
2.6252505010020037,-0.03221591091700718,0.1180655781959396,0.003927919092224936,-0.08014705824059765,-0.12426712562024148,0.0,0.0
2.6452905811623246,-0.029904216952028134,0.11558469824895214,0.00242243894341498,-0.07527400744049781,-0.19692202141947812,0.0,0.0
2.665330661322645,-0.027670061150008057,0.11170779010100393,0.0010474280815378216,-0.06875054309385792,-0.182973027659266,0.0,0.0
2.685370741482966,-0.02550760632218673,0.10812274139106637,-0.00021394352657917314,-0.06306858040584974,-0.17459173832529604,0.0,0.0
2.7054108216432864,-0.023413220434141506,0.10471929440226127,-0.0013745327043144225,-0.05802945888676247,-0.18213364336546972,0.0,0.0
2.7254509018036073,-0.02138951393067104,0.10118532517352342,-0.002437246327318626,-0.05313568115021016,-0.17217784341661635,0.0,0.0
2.7454909819639277,-0.019432297213159,0.09786083587560203,-0.0034146099055999838,-0.04886817891406789,-0.17748019369531898,0.0,0.0
2.7655310621242486,-0.017543359248678905,0.0944468982240047,-0.004309685248783338,-0.04475376715916774,-0.17496934659572452,0.0,0.0
2.785571142284569,-0.01572146366168282,0.09109477934980419,-0.005129585814696416,-0.0409950282956539,-0.17932745383457724,0.0,0.0
2.8056112224448895,-0.013968076054893563,0.08766938033946294,-0.0058769329404833315,-0.03736735628934579,-0.17802108829026475,0.0,0.0
2.8256513026052104,-0.01228247239860253,0.08428018281455164,-0.006557203985697562,-0.03401355226071154,-0.16477620888147743,0.0,0.0
2.845691382765531,-0.010659289182671006,0.08115916079657622,-0.007182436865269732,-0.031261643978608505,-0.17956309115069716,0.0,0.0
2.8657314629258517,-0.00910411736470839,0.07775859089813078,-0.007747924985406182,-0.028274406006822492,-0.17745980225052807,0.0,0.0
2.885771543086172,-0.007615974061032398,0.07440716518379963,-0.008258465037555732,-0.02552700260747757,-0.17835022503735268,0.0,0.0
2.905811623246493,-0.006195060359995498,0.07104568505184498,-0.008716756002755578,-0.022914548259992264,-0.1767041033373734,0.0,0.0
2.9258517034068134,-0.004840602508137693,0.06772289259289026,-0.00912665110488511,-0.0204947551064766,-0.1805969663343537,0.0,0.0
2.9458917835671343,-0.003554002071097449,0.06433002185201221,-0.00948845834234323,-0.01809036187290597,-0.17999966661288386,0.0,0.0
2.9659318637274548,-0.0023349222321685523,0.06095399194644481,-0.00980480895008384,-0.01581753038703047,-0.17897145953696728,0.0,0.0
2.9859719438877756,-0.001182871057834095,0.05760255871672287,-0.010078299534127382,-0.013674529202177143,-0.17824008288556506,0.0,0.0
3.006012024048096,-9.74847337905059e-05,0.05426931620217945,-0.010311082761322357,-0.011639161359748726,-0.17571437103445667,0.0,0.0
3.0260521042084165,0.0009222890734556855,0.05098869036230957,-0.010506104138605137,-0.009751068864138958,-0.18312044187574275,0.0,0.0
3.0460921843687374,0.0018736162603469556,0.04756635934456351,-0.010660261547435056,-0.007707870441496005,-0.1798187568716815,0.0,0.0
3.066132264529058,0.002757829420150964,0.044210657990200436,-0.010776458511735377,-0.005809848215016015,-0.17954244898426625,0.0,0.0
3.0861723446893787,0.0035750696903907877,0.04086201351199117,-0.010855589490742066,-0.003956548950334444,-0.17468127561997554,0.0,0.0
