time,x,x_dot,theta,theta_dot,u,x_ref,theta_ref
0.0,-1.0413162977951886,0.057738608958827514,0.08881782035611219,-0.09084440085604345,-3.6041701795408345,0.0,0.0
0.02004008016032064,-1.0415924540565769,-0.013807813069413005,0.08965876581443889,0.04204727291633523,-3.1364181761069925,0.0,0.0
0.04008016032064128,-1.043117349328625,-0.07624476360240157,0.09289028954822084,0.16157618668909782,-2.410912920626586,0.0,0.0
0.06012024048096192,-1.0456088631936404,-0.12457569325077364,0.09810965759519773,0.2609684023488442,-1.8822954326018455,0.0,0.0
0.08016032064128256,-1.0488621749317077,-0.16266558690336877,0.1050411170517021,0.3465729728252186,-0.7114354302294557,0.0,0.0
0.1002004008016032,-1.0524225025006924,-0.17801637844923573,0.11304639741486255,0.40026401815802254,1.44049380294857,0.0,0.0
0.12024048096192384,-1.0554529801522683,-0.15152388257879257,0.12092535279662028,0.3939477690878867,1.2475135034309779,0.0,0.0
0.1402805611222445,-1.058031086349797,-0.12890530987644225,0.12883999332457285,0.39573202639762806,3.920676340617223,0.0,0.0
0.16032064128256512,-1.0591171738391483,-0.05430437446756166,0.13529155484265826,0.3225780759042708,2.197207124560463,0.0,0.0
0.18036072144288576,-1.0593849766072083,-0.013390138403004702,0.1413202594726474,0.3014352314994573,3.9484553066354473,0.0,0.0
0.2004008016032064,-1.0581538842850728,0.06155461610677893,0.14595210842242243,0.23159244748875177,1.6781116835989391,0.0,0.0
0.22044088176352705,-1.0563099882971423,0.09219479939652492,0.15052971362266043,0.2288802600118997,1.6005975597727182,0.0,0.0
0.24048096192384769,-1.0538847985629574,0.12125948670924326,0.15512700183487568,0.22986441061076313,2.1723100111031326,0.0,0.0
0.2605210420841683,-1.050656913916347,0.16139423233051106,0.15944337428706323,0.2158186226093772,3.886901787635609,0.0,0.0
0.280561122244489,-1.0459597545008537,0.23485797077466802,0.16251812519291056,0.15373754529236613,3.167999177597019,0.0,0.0
0.3006012024048096,-1.040074327157047,0.294271367190331,0.1647858708719449,0.11338728395171745,3.351823320275164,0.0,0.0
0.32064128256513025,-1.0329297507078141,0.35722882246164683,0.16615560144506014,0.06848652865576157,3.3628697936724183,0.0,0.0
0.3406813627254509,-1.0245221605640704,0.42037950718718026,0.16662996834054355,0.02371834477417107,3.2280526726337704,0.0,0.0
0.3607214428857715,-1.0149042160925292,0.4808972235770544,0.16628971569258721,-0.017012632397816668,3.3562628698460366,0.0,0.0
0.3807615230460922,-1.0040258854371789,0.5439165327675215,0.1650588030886538,-0.06154563019667079,3.2378297968949554,0.0,0.0
0.4008016032064128,-0.9919329122197051,0.6046486608736843,0.16299735336404825,-0.10307248623027851,3.007840516484544,0.0,0.0
0.42084168336673344,-0.9787142331370006,0.6609339541352306,0.16022435701731494,-0.13864981733666581,2.998390307089627,0.0,0.0
0.4408817635270541,-0.9643726782553554,0.7170777440822534,0.15672716650187765,-0.17485952577186406,3.0097973821439927,0.0,0.0
0.4609218436873747,-0.9489027308023872,0.7734973726484106,0.15247639108780364,-0.2125387707037007,2.7172538209176036,0.0,0.0
0.48096192384769537,-0.9324170507353462,0.8242840033520469,0.1476131675421975,-0.2431611772803074,2.5769918839488857,0.0,0.0
0.501002004008016,-0.9149688135499843,0.8724118592680957,0.1421869787124475,-0.27130944148749986,2.5324401050226073,0.0,0.0
0.5210420841683366,-0.8965737479516552,0.9197532799164534,0.13618848256370295,-0.29992480743722766,2.297393250038784,0.0,0.0
0.5410821643286573,-0.8773216522362695,0.9626047857692884,0.12971495657756724,-0.32367629930678593,2.19680136038081,0.0,0.0
0.561122244488978,-0.8572498113137608,1.0035920461254342,0.12278301636396735,-0.3465970106799943,2.082354760560355,0.0,0.0
0.5811623246492986,-0.836400788156252,1.042451157875438,0.11541450351599873,-0.3684256423984307,2.0420698695091795,0.0,0.0
0.6012024048096192,-0.8147881206925576,1.0806333731847189,0.1075855642593792,-0.3914469628309767,1.8476742117802634,0.0,0.0
0.6212424849699398,-0.7924853040134059,1.1151408339575843,0.09935901854919645,-0.4113272855091373,1.9937610949923479,0.0,0.0
0.6412825651302605,-0.7694329745018053,1.1526164755800294,0.0905973532175083,-0.4380832665844076,1.908880411009315,0.0,0.0
0.6613226452905812,-0.7456616683326058,1.1885653084599703,0.08129396839937197,-0.46516924090681594,1.4659892465420399,0.0,0.0
0.6813627254509018,-0.7213414161279412,1.2160126102332307,0.0716475804803256,-0.48231939595231854,0.9010287021944765,0.0,0.0
0.7014028056112224,-0.6966898249062518,1.2325795610844712,0.06192643330807889,-0.4860573586123355,1.5473666281117278,0.0,0.0
0.721442885771543,-0.6714519948584098,1.261891502392097,0.05169182912795701,-0.5117302090060942,0.44780613513626744,0.0,0.0
0.7414829659318637,-0.6460539768693828,1.2699008994513499,0.041521036717200206,-0.5085396205378401,1.011813109270056,0.0,0.0
0.7615230460921844,-0.6202728496392966,1.2890563615043082,0.03102035546492312,-0.5250340626138543,0.13685603712998662,0.0,0.0
0.781563126252505,-0.594447039821751,1.2912904908772862,0.0206349809482556,-0.519268725833376,0.6012917943668958,0.0,0.0
0.8016032064128256,-0.5683924019121822,1.302731895478437,0.010027901010980533,-0.5303539968637533,0.5518009997757488,0.0,0.0
0.8216432865731462,-0.5421252575729312,1.3133572169625534,-0.0008387972127560997,-0.5433349111868316,-0.38397613999413394,0.0,0.0
0.8416833667334669,-0.5160077151265005,1.3058771223215384,-0.011486161886706302,-0.5323682336975101,0.14077056749064476,0.0,0.0
0.8617234468937875,-0.489832012341494,1.3087851392503247,-0.022288201788482467,-0.5401019950888083,-1.0877125199524071,0.0,0.0
0.8817635270541082,-0.46407448848665833,1.2878761927417839,-0.03259448271632126,-0.5153140463919396,0.0067319616060179666,0.0,0.0
0.9018036072144289,-0.4383051712399975,1.2884658623330412,-0.04310993522786661,-0.5257726255772674,-0.5314388101778311,0.0,0.0
0.9218436873747494,-0.4127310996030633,1.2787035818467114,-0.05358622381363367,-0.523814429288353,-1.0963368003077434,0.0,0.0
0.9418837675350701,-0.38756971692680436,1.2580691338129486,-0.06375949312805852,-0.5086634657212427,-0.8199348319277118,0.0,0.0
0.9619238476953907,-0.3627102998759514,1.242970852542648,-0.07385543455743482,-0.5047970714688148,-1.1557875155549198,0.0,0.0
0.9819639278557114,-0.33828100406272604,1.2214647906612672,-0.08374195909506355,-0.49432622688143607,-1.1620401077380984,0.0,0.0
1.002004008016032,-0.31428145405252683,1.199977500509962,-0.09347804530325407,-0.4868043104095265,-1.551646914270179,0.0,0.0
1.0220440881763526,-0.2908608214332124,1.1710316309657207,-0.10289859463965022,-0.47102746681980745,-4.592200899109899,0.0,0.0
1.0420841683366733,-0.2692019839635106,1.0829418734850895,-0.1102956707460337,-0.3698538053191741,-4.349420482215714,0.0,0.0
1.062124248496994,-0.24920786365242495,0.9997060155542822,-0.11585921472945573,-0.2781771991711015,-3.9847012817979284,0.0,0.0
1.0821643286573146,-0.23073445307600043,0.9236705288212258,-0.11983770651337033,-0.19892458919573022,-3.5477411766550153,0.0,0.0
1.1022044088176353,-0.21361012398452575,0.8562164545737346,-0.12251086556414852,-0.13365795253890875,-3.137237814801242,0.0,0.0
1.122244488977956,-0.19767400611005,0.7968058937237875,-0.12413428573546598,-0.08117100856587335,-2.580964262497891,0.0,0.0
1.1422845691382766,-0.18270875828110422,0.7482623914472888,-0.1250410911333772,-0.04534026989556064,-2.236442962446389,0.0,0.0
1.1623246492985972,-0.16857981366600167,0.7064472307551276,-0.12543688235837766,-0.01978956125002307,-1.9953597641799217,0.0,0.0
1.1823647294589177,-0.15519308304807758,0.6693365308962039,-0.12546396646381316,-0.00135420527177494,-1.7706270426589505,0.0,0.0
1.2024048096192383,-0.1424609613319711,0.6366060858053245,-0.12525279843276085,0.01055840155261552,-1.9916381533477097,0.0,0.0
1.222444889779559,-0.13046965584861406,0.5995652741678519,-0.12467390334831127,0.02894475422247913,-2.480494668141435,0.0,0.0
1.2424849699398797,-0.1194098858023339,0.5529885023140075,-0.12344014479267615,0.06168792778175581,-2.332321970267173,0.0,0.0
1.2625250501002003,-0.10922426451772047,0.5092810642306717,-0.12162948699732679,0.09053288976746812,-2.1289030161652587,0.0,0.0
1.282565130260521,-0.09983403922207033,0.46951126478250643,-0.11934826292491209,0.11406120362073482,-1.8831392098340316,0.0,0.0
1.3026052104208417,-0.09114408255490919,0.4344978333580569,-0.11672442511600802,0.13119189044520344,-1.7184484598605962,0.0,0.0
1.3226452905811623,-0.08309096233727549,0.40265601088168473,-0.11383677976961705,0.14438226731954834,-1.4442991025124248,0.0,0.0
1.342685370741483,-0.07556864201154385,0.376116016286582,-0.11082608034344002,0.15053497130885174,-1.3519535903115427,0.0,0.0
1.3627254509018036,-0.068541987397672,0.35133273069359255,-0.10772682319057951,0.15496285764302542,-1.3218005819231753,0.0,0.0
1.3827655310621243,-0.062000134248110544,0.3270926574780729,-0.10453684533561751,0.1594988927480998,-1.2457190510743257,0.0,0.0
1.4028056112224447,-0.05591433553766901,0.30428993552207667,-0.1012801196784496,0.16283628285839524,-1.2959431987550827,0.0,0.0
1.4228456913827654,-0.05030511120298701,0.2804612167341001,-0.09790677812037209,0.16866707790387603,-1.4216936870919232,0.0,0.0
1.442885771543086,-0.04522247043694973,0.2541320383018639,-0.0943222485050852,0.17922648076434503,-1.1806425132665805,0.0,0.0
1.4629258517034067,-0.040573448756272654,0.23245108403385373,-0.09064403281550137,0.1839107844791913,-1.1745132740621045,0.0,0.0
1.4829659318637274,-0.036356713654569085,0.21083675508517835,-0.08685237753984955,0.189582763782591,-1.113930944217921,0.0,0.0
1.503006012024048,-0.032549728732552186,0.190349246100845,-0.08295852774025426,0.19469248997976413,-1.0409511923989787,0.0,0.0
1.5230460921843687,-0.029125149352872547,0.17122896898398185,-0.07898033185546485,0.19890979423947047,-0.871213413449022,0.0,0.0
1.5430861723446894,-0.026017911959104544,0.1553618696884002,-0.07499153518911435,0.19943983331752513,-0.7085128713654018,0.0,0.0
1.56312625250501,-0.023165693380222285,0.1426109289441129,-0.07106178555542023,0.19648748168470595,-0.5963542579184418,0.0,0.0
1.5831663326653307,-0.020525862536245,0.13199154219886436,-0.06723168780016316,0.1915048877628535,-0.5832342150688409,0.0,0.0
1.6032064128256511,-0.018094391124970192,0.12157357056374031,-0.06348472959718877,0.1873479101487194,-0.5508837865803374,0.0,0.0
1.6232464929859718,-0.015859726233803554,0.11173324455833183,-0.059816146837844995,0.18342913796718888,-0.33935100382248795,0.0,0.0
1.6432865731462925,-0.01374038940492672,0.10596684144384168,-0.05632627891728142,0.17449339602817898,-0.35546718651911574,0.0,0.0
1.6633266533066131,-0.011743659100488614,0.0998365152219053,-0.052983724221166525,0.16712773480574453,-0.3452334589115524,0.0,0.0
1.6833667334669338,-0.00986649354311777,0.09385827786854217,-0.04977338999990562,0.16051671106304535,-0.27940637022553977,0.0,0.0
1.7034068136272544,-0.00808412414415261,0.089118469948258,-0.04671349032461449,0.15299498376455622,-0.2330451044643759,0.0,0.0
1.723446893787575,-0.00637933363231214,0.08523952559202348,-0.043811825802039475,0.1450832261287509,-0.21436683042252463,0.0,0.0
1.7434869739478958,-0.004745660631024115,0.08168365006440126,-0.04106102421898197,0.13754007915287508,-0.22758556481004077,0.0,0.0
1.7635270541082164,-0.0031890467217562226,0.07783069546339463,-0.038436023783661906,0.13125002176600326,-0.17047449977388174,0.0,0.0
1.783567134268537,-0.001687956987296705,0.07505448672297588,-0.03595365762968963,0.12411830769861389,-0.2097125779218162,0.0,0.0
1.8036072144288577,-0.00025840984253846567,0.07147735723791196,-0.033575343874697336,0.11891568774961445,-0.1835450009740338,0.0,0.0
1.8236472945891782,0.001109125811081823,0.06837678268101444,-0.031301386016432016,0.11369789291326604,-0.07700126716906554,0.0,0.0
1.8436873747494988,0.002455573455988944,0.06732238224535604,-0.02917973854224303,0.10608237370944931,0.2466795848363103,0.0,0.0
1.8637274549098195,0.0039066282343882,0.07255273891996279,-0.027386282367375888,0.08967280874335702,-0.2766829344927247,0.0,0.0
1.8837675350701402,0.005257561310203981,0.06754665379078906,-0.02560370436727789,0.08912890000489986,0.10889311762695786,0.0,0.0
1.9038076152304608,0.006658316725716847,0.0700377707756433,-0.024046228027170748,0.07787381700535712,-0.06075003279188568,0.0,0.0
1.9238476953907815,0.00804225364313145,0.06919684587073012,-0.02260483687516826,0.0720695576001243,0.1123945149244385,0.0,0.0
1.9438877755511021,0.009476522835154901,0.07171345960117254,-0.021371699809596002,0.06165685327861286,-0.14882133664800343,0.0,0.0
1.9639278557114228,0.010858842266836054,0.06911597158405765,-0.020186282103070743,0.0592708853262629,-0.07048594519717703,0.0,0.0
1.9839679358717435,0.01221944007272211,0.06802989029430277,-0.019086922087829715,0.05496800076205131,-0.023148386533712866,0.0,0.0
2.004008016032064,0.013576473434172533,0.0678516680725212,-0.018094373909934975,0.049627408894737005,0.14788914831562722,0.0,0.0
2.024048096192385,0.014996400006737529,0.0709963286282498,-0.0173024138507874,0.039598002957378683,-0.11160231306550283,0.0,0.0
2.0440881763527052,0.01637773528532566,0.06906676392940661,-0.01655428124044333,0.037406630517203665,0.1071617664499406,0.0,0.0
2.064128256513026,0.017805630696664472,0.07139477056694052,-0.01597320957458342,0.029053583292995337,-0.0016206526445215474,0.0,0.0
2.0841683366733466,0.01923747108475378,0.07159201940446533,-0.015491910739344318,0.02406494176195513,-0.11230870079452873,0.0,0.0
2.1042084168336674,0.02062992605077436,0.06962274830102907,-0.015042609653126765,0.022465054310877634,-0.11608299923739505,0.0,0.0
2.124248496993988,0.021981394052719563,0.06757340009726014,-0.014620265437553431,0.021117210778666698,-0.057079669505503555,0.0,0.0
2.1442885771543083,0.023314778347140467,0.06666921472104521,-0.014256725904983286,0.018176976628507317,-0.057718106494559836,0.0,0.0
2.164328657314629,0.024629725665511953,0.06574736591857432,-0.013949325340546465,0.015370028221841067,-0.06135095590974651,0.0,0.0
2.1843687374749496,0.025924730335305242,0.06475023348966447,-0.013694000539232119,0.012766240065717312,-0.019562143827183687,0.0,0.0
2.2044088176352705,0.027216026070637857,0.06456478676663072,-0.013513584246618377,0.009020814630687057,-0.28932870953734596,0.0,0.0
2.224448897795591,0.028398292657519957,0.05911332934410499,-0.013249149132732304,0.013221755694303654,0.2647115461653206,0.0,0.0
2.244488977955912,0.029687652422551156,0.06446798825156001,-0.013223093417483968,0.001302785762416856,-0.22376363275909011,0.0,0.0
2.2645290581162323,0.030893484638648182,0.060291610804851264,-0.013149536544000412,0.003677843674177727,-0.05694920452441965,0.0,0.0
2.284569138276553,0.032080862729828984,0.05936890455903993,-0.013125586918440783,0.0011974812779814627,-0.032983732727603646,0.0,0.0
2.3046092184368736,0.03325913166997589,0.05891344700734541,-0.01316511130709065,-0.0019762194324933285,-0.036343902781291564,0.0,0.0
2.3246492985971945,0.03442699157490817,0.058392995246613795,-0.01326639351569477,-0.005064110430205979,-0.07491084083579003,0.0,0.0
2.344689378757515,0.035569421830822456,0.05712151279571435,-0.013407513814317934,-0.0070560149311581786,-0.19429485700885613,0.0,0.0
2.3647294589178354,0.03663987673082505,0.05352274500012953,-0.013519532790347993,-0.005600948801502929,-0.13932403260709003,0.0,0.0
2.3847695390781563,0.037659839154235576,0.050998121170526364,-0.013635310055311298,-0.005788863248165243,-0.2330683604153037,0.0,0.0
2.4048096192384767,0.03859276130224082,0.04664610740026224,-0.013700743647530359,-0.003271679610952991,-0.21519102749024768,0.0,0.0
2.4248496993987976,0.03944563804628751,0.042643837202334375,-0.013726702926430637,-0.0012979639450139161,-0.07121717910246939,0.0,0.0
2.444889779559118,0.04027465840566789,0.041451017969019226,-0.013797563414871733,-0.0035430244220547753,-0.0716255296109747,0.0,0.0
2.464929859719439,0.04107968333732329,0.04025124658276987,-0.01391353309324145,-0.005798483918485855,-0.1269636329845132,0.0,0.0
2.4849699398797593,0.04183915200428176,0.037973433347923385,-0.014042975503319219,-0.00647212050388845,-0.1568984691202154,0.0,0.0
2.50501002004008,0.042541420319232415,0.03511341574753279,-0.014169197839971576,-0.006311116832617879,-0.19347618976287873,0.0,0.0
2.5250501002004007,0.04317225109202392,0.031541538639575296,-0.014271601602020918,-0.005120188102467056,-0.19080492507969768,0.0,0.0
2.5450901803607215,0.043732716063569536,0.028023248577280967,-0.014352395086214493,-0.00403967420967871,-0.2095336504257112,0.0,0.0
2.565130260521042,0.044215530070289714,0.02414070033600906,-0.014401133339845662,-0.002436912681558463,-0.21503814068867777,0.0,0.0
2.5851703406813624,0.04461855912422278,0.02015145269665326,-0.014414904165946308,-0.000688541305032303,-0.22070580147164576,0.0,0.0
2.6052104208416833,0.0449395955393681,0.01605182075726604,-0.014390479384969618,0.0012212390488345176,-0.2293192195106666,0.0,0.0
2.6252505010020037,0.04517527118382672,0.011783782222931322,-0.014322666921144533,0.003390623191254231,-0.23008401814231566,0.0,0.0
2.6452905811623246,0.04532526817350845,0.007499849484086617,-0.01421059172330308,0.005603759892072647,-0.23322978631215566,0.0,0.0
2.665330661322645,0.045388326828920245,0.00315293277058952,-0.014051706914202875,0.007944240455010229,-0.23377999933860458,0.0,0.0
2.685370741482966,0.04536418688513619,-0.0012069971892028864,-0.013844688520296626,0.010350919695312474,-0.23245594973333283,0.0,0.0
2.7054108216432864,0.04525330564991632,-0.005544061760993211,-0.013589005242130747,0.012784163908293981,-0.22746057892823193,0.0,0.0
2.7254509018036073,0.04505755910225048,-0.009787327383291937,-0.013285966237606627,0.015151950226205997,-0.22174698501075582,0.0,0.0
2.7454909819639277,0.04477908991023305,-0.013923459600871784,-0.012937002104261821,0.017448206667240278,-0.21192461628553727,0.0,0.0
2.7655310621242486,0.0444216309081859,-0.017872950102357534,-0.012545657109410906,0.019567249742545784,-0.2043668221954629,0.0,0.0
2.785571142284569,0.04398801909972279,-0.021680590423155358,-0.01211388369075691,0.021588670932699776,-0.19620226822328404,0.0,0.0
2.8056112224448895,0.04348131667344807,-0.025335121313736022,-0.011643734268617536,0.023507471106968717,-0.19137209521672596,0.0,0.0
2.8256513026052104,0.042903273672168694,-0.028902150063968804,-0.011135068920889377,0.025433267386407922,-0.1672527663524191,0.0,0.0
2.845691382765531,0.0422631561628274,-0.03200587546706482,-0.010598787695626052,0.02681406126316625,-0.1582774851893046,0.0,0.0
2.8657314629258517,0.041564312763808564,-0.0349421699509417,-0.010036758380916397,0.028101465735482764,-0.14730294897424115,0.0,0.0
2.885771543086172,0.04081086487501323,-0.037672394439766776,-0.009451855901173204,0.029245123987159692,-0.14317821288296811,0.0,0.0
2.905811623246493,0.04000425439512248,-0.0403305239945374,-0.008842804275224457,0.03045258129743732,-0.1240835980195785,0.0,0.0
2.9258517034068134,0.03915175790590911,-0.042624824460668446,-0.008216931850827626,0.031293621219841604,-0.11519539944838929,0.0,0.0
2.9458917835671343,0.038256664393005145,-0.0447546756451981,-0.007575490793916446,0.03207205284555896,-0.09875268872797398,0.0,0.0
2.9659318637274548,0.037325206340213364,-0.04657290263958909,-0.0069240541993664745,0.03257182972749857,-0.08446492273073203,0.0,0.0
2.9859719438877756,0.03636277246478345,-0.04812169377149569,-0.0062668716892220365,0.032859125507221885,-0.07101703075854279,0.0,0.0
3.006012024048096,0.035374422105433394,-0.04941751796750294,-0.005607665445737451,0.03296031217422928,-0.057852722137980504,0.0,0.0
3.0260521042084165,0.034365103365927206,-0.05046593697530938,-0.00494997907663308,0.03288431845521851,-0.011565562038390771,0.0,0.0
3.0460921843687374,0.033352690167762634,-0.05062065990822859,-0.004316741553988607,0.031661876132223654,-0.008109302369711397,0.0,0.0
3.066132264529058,0.03233834974914201,-0.05071702093103123,-0.0037059815406579716,0.03053800066653179,-0.001747557780654831,0.0,0.0
3.0861723446893787,0.031324389581853906,-0.050698008364405196,-0.0031175690547826226,0.029420624293767444,0.004640069880193822,0.0,0.0
