time,x,x_dot,theta,theta_dot,u,x_ref,theta_ref
0.0,-0.6482017644651017,-0.008300888779329413,0.17400274033992508,0.08936513914937844,5.168205002985706,0.0,0.0
0.02004008016032064,-0.6464041654883974,0.08987994883521323,0.17390825199120905,-0.004724417435801959,4.558784127318273,0.0,0.0
0.04008016032064128,-0.6428802389902448,0.17619632490762752,0.17228172349284057,-0.08132642491842401,4.078919690669713,0.0,0.0
0.06012024048096192,-0.6378163099035574,0.2531964543343679,0.16938819262613775,-0.14467654333514107,3.7026642612174894,0.0,0.0
0.08016032064128256,-0.631357963024792,0.32291734393827487,0.165424885312601,-0.1981653656768382,3.435194546103185,0.0,0.0
0.1002004008016032,-0.6236081049080447,0.3874929058373618,0.1605196145238003,-0.24526353944003387,3.1067548158686242,0.0,0.0
0.12024048096192384,-0.6146931234603462,0.445749072384929,0.1548294241486699,-0.2845095187565199,2.793960095345848,0.0,0.0
0.1402805611222445,-0.6047331136014729,0.4980004929436673,0.14849760736221881,-0.31659083932255383,2.610128627617908,0.0,0.0
0.16032064128256512,-0.5937977772255082,0.5467668187982322,0.14158922248217828,-0.34541924400202595,2.4377397069932707,0.0,0.0
0.18036072144288576,-0.5819522126375682,0.5922782293969969,0.1341592499576281,-0.37149862622750895,2.263023948694713,0.0,0.0
0.2004008016032064,-0.5692622967679514,0.6344957934808443,0.12626091619237545,-0.3949166882626321,2.0365065451744657,0.0,0.0
0.22044088176352705,-0.5558139867779276,0.6724154995011904,0.11797473243610265,-0.41430918781363957,1.7382792588254539,0.0,0.0
0.24048096192384769,-0.5417211166752788,0.7046435051324431,0.10942067979668504,-0.4277026319708801,1.4796276029169815,0.0,0.0
0.2605210420841683,-0.5270820580871743,0.7319529294052203,0.10069446221559364,-0.4363108790545703,1.3191729573404922,0.0,0.0
0.280561122244489,-0.5119568776971375,0.7562590195018454,0.0918339228741992,-0.4430269670697218,0.9651347257889552,0.0,0.0
0.3006012024048096,-0.4964811162306049,0.7737880733266288,0.08298894289404966,-0.44224899900747644,0.6431385105414742,0.0,0.0
0.32064128256513025,-0.48077786195702665,0.7851627136789149,0.0742912211277253,-0.4348860883162186,0.5167793779264805,0.0,0.0
0.3406813627254509,-0.4648939621263702,0.7941949915328235,0.06575960529259117,-0.42658079175670566,0.5257253216102524,0.0,0.0
0.3607214428857715,-0.44882353100023914,0.8035215563065529,0.05733511816811859,-0.42122435622362875,0.38186993595359975,0.0,0.0
0.3807615230460922,-0.4326203161482149,0.8101607426012135,0.04904864230074581,-0.4143237933686391,0.20853540516117564,0.0,0.0
0.4008016032064128,-0.4163496096093251,0.8135353269444899,0.04094922413558429,-0.4049709082580757,0.19618436540856485,0.0,0.0
0.42084168336673344,-0.4000139482270637,0.81678306911307,0.03299307998840838,-0.3978072073587959,0.24151883546955535,0.0,0.0
0.4408817635270541,-0.38359339497692413,0.8210276625069781,0.025103589796901762,-0.39447450957533087,-0.028659912876055044,0.0,0.0
0.4609218436873747,-0.3671911411136703,0.8201126931626926,0.017389024314022256,-0.38572827414397537,-0.1979925434850884,0.0,0.0
0.48096192384769537,-0.35087108014020474,0.8160030486732783,0.009899830978845354,-0.3744596667588451,-0.23637161573065732,0.0,0.0
0.501002004008016,-0.3346460672400738,0.8112506450065465,0.002611287416427757,-0.3644271781208798,-0.3627488836458079,0.0,0.0
0.5210420841683366,-0.3185633500612394,0.8041358589417186,-0.004448601848138822,-0.35299446322832895,-0.5094349184534768,0.0,0.0
0.5410821643286573,-0.30267816307995654,0.7942593490641447,-0.011238525169528259,-0.3394961660694718,-0.7116863481150115,0.0,0.0
0.561122244488978,-0.2870674962955503,0.7805333392203125,-0.017682991247866778,-0.322223303916926,-0.7168108756574005,0.0,0.0
0.5811623246492986,-0.27173150979824423,0.7667993248653023,-0.023819664251452457,-0.306833650179284,-0.8796877719794708,0.0,0.0
0.6012024048096192,-0.2567320051797552,0.7499752309244512,-0.0295920316866852,-0.28861837176163707,-0.9538192965264469,0.0,0.0
0.6212424849699398,-0.2420962532982819,0.7317875940736647,-0.03499321664083511,-0.2700592477074954,-1.7882592008053626,0.0,0.0
0.6412825651302605,-0.22814829283417923,0.6973980232051343,-0.039569579704948135,-0.22881815320565124,-1.6955968952774882,0.0,0.0
0.6613226452905812,-0.21485063420671974,0.6648829313729742,-0.043404325500034285,-0.19173728975430765,-1.2830442960280737,0.0,0.0
0.6813627254509018,-0.20204119115487656,0.6404721525921588,-0.04676287257854142,-0.1679273539253569,-1.2276578459817296,0.0,0.0
0.7014028056112224,-0.18969737907918255,0.617190603784701,-0.04969886630652982,-0.14679968639941973,-1.305841417896953,0.0,0.0
0.721442885771543,-0.17784884978608761,0.5924264646547465,-0.05218524323397926,-0.124318846372472,-1.0401129227267358,0.0,0.0
0.7414829659318637,-0.16639120655112127,0.5728821617483174,-0.05439297339763,-0.11038650818253713,-1.2106279230656194,0.0,0.0
0.7615230460921844,-0.1553903357903008,0.5500435380410249,-0.05623645880555943,-0.09217427039647114,-1.054623105894215,0.0,0.0
0.781563126252505,-0.14478483895423444,0.5302748418033169,-0.05781848039562561,-0.07910107950330889,-1.1349046837779178,0.0,0.0
0.8016032064128256,-0.13460557848419952,0.5089630235017457,-0.05910218553668857,-0.06418525705314818,-0.979367198004466,0.0,0.0
0.8216432865731462,-0.1247915027552527,0.4907037864473404,-0.06018651317731818,-0.054216382031480395,-1.20907829124098,0.0,0.0
0.8416833667334669,-0.11543191405481373,0.4679794350219483,-0.06094423186501107,-0.037885934384644694,-1.1061934629665555,0.0,0.0
0.8617234468937875,-0.10648645460251005,0.4472729726151838,-0.06144020382684794,-0.024798598091843517,-1.0175230722328794,0.0,0.0
0.8817635270541082,-0.09792038857334945,0.42830330145803025,-0.06172932987307241,-0.014456302311223466,-0.9227624430324899,0.0,0.0
0.9018036072144289,-0.08969666449316306,0.4111862040093195,-0.0618687526106102,-0.006971136876889436,-0.8800823936030936,0.0,0.0
0.9218436873747494,-0.08179859187759732,0.39490363077828744,-0.061884266407071384,-0.0007756898230592947,-1.0050509179471205,0.0,0.0
0.9418837675350701,-0.07427491855269228,0.37618366624525185,-0.06170302653761762,0.009061993472688167,-0.8948044961791464,0.0,0.0
0.9619238476953907,-0.06708268769806143,0.3596115427315426,-0.061388236166769854,0.0157395185423881,-0.8750901910629605,0.0,0.0
0.9819639278557114,-0.06021429905195684,0.34341943230522953,-0.06094941117636224,0.021941249520380842,-0.8423794960502904,0.0,0.0
1.002004008016032,-0.053657117863351624,0.32785905943026084,-0.06040286980684514,0.027327068475855247,-0.8442789455495756,0.0,0.0
1.0220440881763526,-0.0474120424274575,0.3122537717947059,-0.05974404670584503,0.03294115505000538,-0.569143719403659,0.0,0.0
1.0420841683366733,-0.0413719254071379,0.30200585101598026,-0.05912939293827332,0.030732688378585303,-0.5244256632401147,0.0,0.0
1.062124248496994,-0.035519496917640614,0.2926214244748641,-0.058581135160398236,0.027412888893754307,-0.629382709292927,0.0,0.0
1.0821643286573146,-0.029895860348397942,0.2811818284621336,-0.05803453725722171,0.027329895158826202,-0.6331274044590207,0.0,0.0
1.1022044088176353,-0.024502633241048483,0.269661355367473,-0.05748396105968906,0.027528809876632823,-0.6921367227331309,0.0,0.0
1.122244488977956,-0.019362994812437955,0.2569819214305264,-0.05689147590448535,0.029624257760185218,-0.7691070217800803,0.0,0.0
1.1422845691382766,-0.014507143836815643,0.24279254878111559,-0.05620839634692245,0.034153977878145184,-0.729564960498569,0.0,0.0
1.1623246492985972,-0.009919849935553195,0.22936469506312232,-0.0554534936217222,0.0377451362600123,-0.7560784455772652,0.0,0.0
1.1823647294589177,-0.005611673938855301,0.21540879983489472,-0.05460651461110384,0.04234895053091806,-0.6768604387957866,0.0,0.0
1.2024048096192383,-0.001551953168931701,0.20298603849618,-0.053708367005484564,0.04490738028096402,-0.8390002938918285,0.0,0.0
1.222444889779559,0.0021957966603695918,0.18738749146506464,-0.05265868585792593,0.0524840573779317,-0.5293788619428358,0.0,0.0
1.2424849699398797,0.005752071057959991,0.17781371987951997,-0.051631665513638764,0.05135101721435814,-0.529469100789183,0.0,0.0
1.2625250501002003,0.00911654076857527,0.168223485530764,-0.05062077078688547,0.0505447363376646,-0.5235003014367431,0.0,0.0
1.282565130260521,0.01229124503108868,0.15873521312567046,-0.049623107269692435,0.04988317585965175,-0.5379875756949194,0.0,0.0
1.3026052104208417,0.015270245798686912,0.14895003837991164,-0.04862391495924339,0.04995961552245214,-0.5634980800520601,0.0,0.0
1.3226452905811623,0.01804330359075448,0.1386528896033785,-0.047601983478164474,0.05109657405394584,-0.6013729877380154,0.0,0.0
1.342685370741483,0.02059534802237532,0.12760222158104198,-0.04652873353170268,0.053662497323089815,-0.5932911875865101,0.0,0.0
1.3627254509018036,0.02292922428178488,0.11669381297047804,-0.04540210910739335,0.05633122121546638,-0.5796602571854043,0.0,0.0
1.3827655310621243,0.02504992734578121,0.10603515319981642,-0.04422295992308845,0.058957459215244916,-0.5679971937388344,0.0,0.0
1.4028056112224447,0.026961669379294013,0.09558710167564023,-0.04299065511633958,0.06161524033744357,-0.5553658884533943,0.0,0.0
1.4228456913827654,0.028669025122179535,0.085367787144276,-0.041704794804925345,0.06429301557071189,-0.4753292911675565,0.0,0.0
1.442885771543086,0.030202853959999904,0.07669144189101848,-0.0404040328904451,0.06503809572401238,-0.5085021143894073,0.0,0.0
1.4629258517034067,0.03154983966602006,0.0673492853010078,-0.039060772651516903,0.06716301194640985,-0.4742183878688311,0.0,0.0
1.4829659318637274,0.03272297382233011,0.05865670781550229,-0.0376865722828687,0.06871001843241023,-0.45376094216302265,0.0,0.0
1.503006012024048,0.03372984455970259,0.0503435368686241,-0.03628471574898715,0.0700928266940775,-0.4263801948446827,0.0,0.0
1.5230460921843687,0.03458073357875439,0.04254445095258991,-0.034862360769501326,0.07111774897429138,-0.4020780210560029,0.0,0.0
1.5430861723446894,0.035284715631634656,0.03519910264401335,-0.033424737941014374,0.07188114142434776,-0.3883708278517596,0.0,0.0
1.56312625250501,0.0358467271208347,0.028100574460002144,-0.03197078928353946,0.07269743287374542,-0.352953705108958,0.0,0.0
1.5831663326653307,0.03628017095152055,0.021672191534292756,-0.030512046903596678,0.0729371189971392,-0.2917420922070813,0.0,0.0
1.6032064128256511,0.03660851385348483,0.016417145098213765,-0.02907509588977201,0.07184755069123334,-0.30422180420657724,0.0,0.0
1.6232464929859718,0.03682647467286804,0.01089804096916041,-0.027643575814827466,0.07157600374722721,-0.19819645658892995,0.0,0.0
1.6432865731462925,0.03697501481941468,0.007427007327332123,-0.026270451542225515,0.06865621363009757,-0.19785354605839808,0.0,0.0
1.6633266533066131,0.03705387507404768,0.003943012731649756,-0.02494726477330779,0.0661593384458862,-0.2063781073258523,0.0,0.0
1.6833667334669338,0.03705935026283047,0.00027375943913970045,-0.02366068647935714,0.06432891469753238,-0.20614913120298137,0.0,0.0
1.7034068136272544,0.036991161289011386,-0.0034094486909541245,-0.02240273683247017,0.06289748234434869,-0.20139238368467088,0.0,0.0
1.723446893787575,0.0368508039813554,-0.007017865382799171,-0.02116826424972896,0.061723629137060435,-0.1925182461941274,0.0,0.0
1.7434869739478958,0.036641387520093466,-0.010470823063096771,-0.01995467319187915,0.06067955289249046,-0.1797118908416767,0.0,0.0
1.7635270541082164,0.03636756146562457,-0.013691302723444789,-0.018761799722187698,0.0596436734845727,-0.17110632096549347,0.0,0.0
1.783567134268537,0.03603234210648773,-0.01676096795684226,-0.017587154021047765,0.05873228505699657,-0.15927744377991385,0.0,0.0
1.8036072144288577,0.03564000873459181,-0.01961666859479589,-0.01643024659804505,0.0578453711501357,-0.14555917493092035,0.0,0.0
1.8236472945891782,0.03519558300304126,-0.022221286577527883,-0.015291805144327663,0.05692207268586934,-0.06179532675553595,0.0,0.0
1.8436873747494988,0.034731425008846295,-0.02320789970974811,-0.0142136433923776,0.05390808759750316,0.003253186442512726,0.0,0.0
1.8637274549098195,0.03427260921554721,-0.022940789664954303,-0.013227010335953518,0.049331652821204164,-0.02074942117211878,0.0,0.0
1.8837675350701402,0.03380948679279062,-0.023156121137829347,-0.012311645910498294,0.045768221272761124,-0.03335001214375477,0.0,0.0
1.9038076152304608,0.03333687854468493,-0.023630412405284337,-0.011454408145348163,0.04286188825750653,-0.04095133318804236,0.0,0.0
1.9238476953907815,0.032851572700239966,-0.02426529222224818,-0.010645445510299051,0.04044813175245563,-0.04428002106312922,0.0,0.0
1.9438877755511021,0.032352038563539215,-0.024976706835037388,-0.009877709916610076,0.03838677968444878,-0.04459503407615677,0.0,0.0
1.9639278557114228,0.03183793323510126,-0.02570526642189804,-0.00914617596538388,0.036576697561309816,-0.04227729555833116,0.0,0.0
1.9839679358717435,0.031309951536337824,-0.026399084938171623,-0.00844758650383333,0.03492947307752751,-0.037134476745349254,0.0,0.0
2.004008016032064,0.030769900134374386,-0.027002570098171946,-0.007780544634087165,0.03335209348730823,-0.033576519152181634,0.0,0.0
2.024048096192385,0.03021897628069019,-0.027546192684209776,-0.007142925332150851,0.0318809650968157,0.06629428533092055,0.0,0.0
2.0440881763527052,0.029695969296623853,-0.026150349203316933,-0.006589127921496727,0.02768987053270618,0.03307389258080312,0.0,0.0
2.064128256513026,0.029187757095339797,-0.02541061006420286,-0.006096227934196708,0.024644999365000968,0.00564970239686801,0.0,0.0
2.0841683366733466,0.028683496833488125,-0.025213013092583506,-0.005645075252052004,0.022557634107235224,-0.004410081194598615,0.0,0.0
2.1042084168336674,0.02817913364031322,-0.02521815965874519,-0.005226940405424578,0.020906742331371277,-0.0035117787010065103,0.0,0.0
2.124248496993988,0.027674898222002794,-0.025211770915521313,-0.0048397121714781905,0.019361411697319378,-0.02058933264985028,0.0,0.0
2.1442885771543083,0.02716401550433167,-0.025544135883556245,-0.00447095895485448,0.018437660831185518,-0.021349333404016336,0.0,0.0
2.164328657314629,0.026646083226119836,-0.02589661391059174,-0.004117910838489579,0.017652405818245058,-0.03817840417568864,0.0,0.0
2.1843687374749496,0.026114433063655414,-0.02658250812322102,-0.003768497046054416,0.017470689621758143,-0.03157447052317517,0.0,0.0
2.2044088176352705,0.025571541889448976,-0.0271445587103219,-0.0034243772571665135,0.01720598944439513,-0.014952586360157227,0.0,0.0
2.224448897795591,0.025023797356234848,-0.027387226660706494,-0.003093104741825032,0.01656362576707406,0.004054922899510937,0.0,0.0
2.244488977955912,0.02447852173400018,-0.027263781111733363,-0.0027837093289292737,0.015469770644787929,0.00252174198835052,0.0,0.0
2.2645290581162323,0.02393502805721974,-0.02717468383902195,-0.0024933431203203785,0.01451831043044476,0.0004403095659691902,0.0,0.0
2.284569138276553,0.023392420871512033,-0.0271303592853854,-0.002218957498677385,0.013719281082149674,0.0003057196764302253,0.0,0.0
2.3046092184368736,0.022850569010429568,-0.027092593054123336,-0.0019587434633266338,0.013010701767537556,0.0007082587927907075,0.0,0.0
2.3246492985971945,0.022309554970623466,-0.027050701990305178,-0.0017112955828324054,0.01237239402471141,0.003679576148983304,0.0,0.0
2.344689378757515,0.021770467311520218,-0.026954382955162344,-0.0014767915923458092,0.011725199524329813,0.002287892870860971,0.0,0.0
2.3647294589178354,0.021232695746198012,-0.026888578266110304,-0.0012529386149015623,0.011192648872212344,0.004026032836504532,0.0,0.0
2.3847695390781563,0.020696854378759278,-0.026792068371936636,-0.001039341799036968,0.01067984079322972,0.0047293823637816175,0.0,0.0
2.4048096192384767,0.020163156450734503,-0.026684896401238802,-0.0008350656438219073,0.010213807760753034,0.007438937577116906,0.0,0.0
2.4248496993987976,0.01963260074881919,-0.026527785095765626,-0.0006404070005976595,0.009732932161212394,0.047750198657884435,0.0,0.0
2.444889779559118,0.019120861981717505,-0.025586938355084323,-0.00047771936483239486,0.00813438178826323,0.035315322252907,0.0,0.0
2.464929859719439,0.01862304110513589,-0.024891043829080757,-0.0003387027578304203,0.0069508303500987285,0.02649350112508824,0.0,0.0
2.4849699398797593,0.018135655767654857,-0.0243692668740516,-0.00021732000959768356,0.006069137411636837,0.020203299355363687,0.0,0.0
2.50501002004008,0.017656216576012056,-0.02397195958214002,-0.00010912607847651509,0.005409696556058423,0.01611341361326222,0.0,0.0
2.5250501002004007,0.01718309653790868,-0.023656001905168686,-1.1046217654279463e-05,0.004903993041111781,0.013576964416745878,0.0,0.0
2.5450901803607215,0.016715277751493007,-0.023390939320783687,7.902182126577437e-05,0.004503401946002692,0.011441123909179073,0.0,0.0
2.565130260521042,0.016251900939323178,-0.023168840608491423,0.00016289541867236862,0.004193679870329712,0.010103079274049655,0.0,0.0
2.5851703406813624,0.01579241992024508,-0.02297405095390485,0.0002418862033344195,0.003949539233102544,0.00935812435051997,0.0,0.0
2.6052104208416833,0.015336521351757518,-0.022794928424378122,0.0003169280712026056,0.0037520933934093075,0.009044041212528647,0.0,0.0
2.6252505010020037,0.014884061160662689,-0.02262300955474144,0.000388677967750263,0.003587494827382868,0.006270587701112164,0.0,0.0
2.6452905811623246,0.014433936506941579,-0.022506232686055457,0.0004592107455939821,0.003526638892185956,0.007423090217785839,0.0,0.0
2.665330661322645,0.013986576909819103,-0.02236797985612382,0.0005282970021420653,0.0034543128274041614,0.008572194198040024,0.0,0.0
2.685370741482966,0.013542410976943621,-0.022208296643774106,0.0005957002011272401,0.0033701599492587347,0.00963067849840099,0.0,0.0
2.7054108216432864,0.013101832436223365,-0.022028927036012814,0.0006612262030579646,0.0032763000965362293,0.010716940837241694,0.0,0.0
2.7254509018036073,0.01266524639334889,-0.021829302143723816,0.0007246527814595866,0.003171328920081098,0.011719773807226682,0.0,0.0
2.7454909819639277,0.01223302599946311,-0.021611019694289038,0.0007857932748827114,0.003057024671156243,0.012773894195602117,0.0,0.0
2.7655310621242486,0.011805565074665745,-0.021373046239868243,0.0008444166040857856,0.0029311664601537044,0.013601636115695617,0.0,0.0
2.785571142284569,0.011383169821786977,-0.02111976264393834,0.0009004082419690193,0.0027995818941616833,0.014518162033454116,0.0,0.0
2.8056112224448895,0.010966181843820179,-0.020849398898339914,0.0009535851297384066,0.0026588443884693652,0.015060911919218808,0.0,0.0
2.8256513026052104,0.010554797693422902,-0.020569207519863873,0.0010039651077569662,0.002518998900927976,0.019409820383371842,0.0,0.0
2.845691382765531,0.01015069998713435,-0.02020488531442756,0.0010493218784671673,0.002267838535510047,0.01843569148655066,0.0,0.0
2.8657314629258517,0.009753495593526734,-0.019860219680380847,0.0010905113019536402,0.002059471174323651,0.017931305919489465,0.0,0.0
2.885771543086172,0.009362975881775953,-0.019525985587539,0.0011280881716476921,0.0018788434847025989,0.01763055450786284,0.0,0.0
2.905811623246493,0.008979012719904738,-0.019198158093560805,0.0011624653796112087,0.0017188603981758332,0.017473651288654635,0.0,0.0
2.9258517034068134,0.00860153502639109,-0.018873884675682406,0.0011939514934378556,0.0015743056913323445,0.017415539323041306,0.0,0.0
2.9458917835671343,0.008230511099329495,-0.018551196353079724,0.0012227790591923997,0.0014413782877272078,0.017423368706264233,0.0,0.0
2.9659318637274548,0.007865935730885733,-0.018228768422188103,0.001249125284165873,0.0013173112486736633,0.017472476531031463,0.0,0.0
2.9859719438877756,0.0075078205323937325,-0.01790575992460001,0.0012731275814872535,0.0012001148660690298,0.017545099800214303,0.0,0.0
3.006012024048096,0.007156186963383712,-0.017581678450501015,0.001294894827528906,0.0010883623020826268,0.01762794564001102,0.0,0.0
3.0260521042084165,0.006811061113148649,-0.017256292511753174,0.001314515824455771,0.0009810498463432515,0.01302197734437487,0.0,0.0
3.0460921843687374,0.006470639988905174,-0.01702105621217371,0.0013348086694091983,0.001014642247671355,0.014760068283908957,0.0,0.0
