time,x,x_dot,theta,theta_dot,u,x_ref,theta_ref
0.0,0.9459653253738152,-0.09631624063471914,-0.18534651624938137,0.018941445856498373,-2.8040253285726595,0.0,0.0
0.02004008016032064,0.9429992962061305,-0.14830145838423348,-0.18451873107816985,0.04138925856057586,-2.738706824072682,0.0,0.0
0.04008016032064128,0.9390187408712932,-0.199027766741868,-0.18327407400296994,0.062232853759996015,-2.8325788888354007,0.0,0.0
0.06012024048096192,0.9339867439564293,-0.25159984574319433,-0.18155059645541052,0.08617387737797033,-2.8689905607018997,0.0,0.0
0.08016032064128256,0.9278886105428515,-0.30490667067889105,-0.17931617939943167,0.11172085279894245,-2.959143223735823,0.0,0.0
0.1002004008016032,0.9206885659331124,-0.36000223048695795,-0.17650449633677506,0.1405841531328305,-2.7224089532507474,0.0,0.0
0.12024048096192384,0.912477925499861,-0.41053202166257163,-0.17323322450580483,0.16356359154851122,-2.9890449313968688,0.0,0.0
0.1402805611222445,0.9031518826301425,-0.46630214348592247,-0.16932781163726698,0.19527064342689246,-2.836481331567266,0.0,0.0
0.16032064128256512,0.8927686539412266,-0.5191614344457898,-0.1648505533241085,0.22386291565792354,-2.8583611045146937,0.0,0.0
0.18036072144288576,0.8813183598738472,-0.5725147033689683,-0.1597597167954449,0.2545418264331795,-2.8070989433762312,0.0,0.0
0.2004008016032064,0.868819419836288,-0.6249470018779615,-0.15405172415878504,0.28539963183299266,-2.5675491069389786,0.0,0.0
0.22044088176352705,0.8553634206678653,-0.6727999584211357,-0.14782771188449478,0.3112006137145123,-2.5567651376458733,0.0,0.0
0.24048096192384769,0.8409526995435065,-0.7205360562179434,-0.1410536441924736,0.3387033846010598,-2.348318750295149,0.0,0.0
0.2605210420841683,0.8256664509156584,-0.7643124313924027,-0.1338062719898797,0.36236861012969496,-2.1712374943880337,0.0,0.0
0.280561122244489,0.8095715370784419,-0.8047456918608231,-0.12614144073205444,0.38324156289126293,-1.9248331760882595,0.0,0.0
0.3006012024048096,0.792761744464824,-0.8404896306808952,-0.11815275985030493,0.399434044087475,-1.6427475329545884,0.0,0.0
0.32064128256513025,0.7753447116136972,-0.8708516425563343,-0.10995282401594109,0.4099967917181921,-1.3140409089359393,0.0,0.0
0.3406813627254509,0.757446232887978,-0.8949239362859628,-0.10168034637659848,0.4136238819671301,-1.2955981576083786,0.0,0.0
0.3607214428857715,0.7390711431096356,-0.9187544889171194,-0.09329356686907281,0.4193389753762839,-1.158267394496758,0.0,0.0
0.3807615230460922,0.720270604053858,-0.9400269527888826,-0.08481921415986132,0.42371763546057434,-1.0298835138563125,0.0,0.0
0.4008016032064128,0.7010922749898393,-0.9589164532009338,-0.076278394392962,0.42704098834496595,-0.894153232132225,0.0,0.0
0.42084168336673344,0.6815866713477101,-0.9752801821064588,-0.06769619823019901,0.42910980813814886,-1.132860471442759,0.0,0.0
0.4408817635270541,0.6616582394710223,-0.9964215938343909,-0.05887910894746879,0.4408544641365111,-0.8834782130098869,0.0,0.0
0.4609218436873747,0.6414017492387157,-1.0128245116153283,-0.04991688472489899,0.4481112111284901,-0.7599040057332374,0.0,0.0
0.48096192384769537,0.6208628648437388,-1.0269442197488463,-0.040825067281939395,0.4545908721479796,-0.6843060764170288,0.0,0.0
0.501002004008016,0.600068501911046,-1.0397181466346392,-0.03159042532472723,0.4617320978606083,-0.5207033531205448,0.0,0.0
0.5210420841683366,0.5790798787030442,-1.0494311604000892,-0.022250325058304675,0.4670050133211277,-0.34616109973235065,0.0,0.0
0.5410821643286573,0.5579624600600623,-1.0558709321490933,-0.0128479395047824,0.4701192776761137,-0.17970690612992676,0.0,0.0
0.561122244488978,0.5367785427882606,-1.0591958635900853,-0.0034213731595037575,0.47132831726393215,-0.005950227016150195,0.0,0.0
0.5811623246492986,0.5155932694387337,-1.0592636674763438,0.005987120950675103,0.470424705508943,0.18842674178617225,0.0,0.0
0.6012024048096192,0.494479834689271,-1.0556717374731368,0.015323108469566303,0.46679937594455995,0.4210386489256064,0.0,0.0
0.6212424849699398,0.4735263711117068,-1.0476731788782097,0.024509357339325136,0.4593124434879417,2.869773530226472,0.0,0.0
0.6412825651302605,0.4536857975017557,-0.992028680497556,0.03217182558045357,0.3831234120564215,4.170238651397245,0.0,0.0
0.6613226452905812,0.4354633141514488,-0.9111241675153464,0.0375989491921168,0.2713561805831615,3.4180689462540053,0.0,0.0
0.6813627254509018,0.41856380062323717,-0.8449756764105824,0.04126515090960884,0.18331008587460207,2.423667643803558,0.0,0.0
0.7014028056112224,0.40259816152669814,-0.7982819548269519,0.0437750264058931,0.12549377481421284,1.197456843514002,0.0,0.0
0.721442885771543,0.38708721956173653,-0.7755470982480813,0.04586108942609731,0.10430315101021051,0.6348739821664946,0.0,0.0
0.7414829659318637,0.3718108685914481,-0.7638175485144224,0.0478652558136687,0.10020831937856946,0.8672995404298615,0.0,0.0
0.7615230460921844,0.3568592165226344,-0.7475826034406828,0.04966440006188056,0.08995721241059322,0.8823012493331623,0.0,0.0
0.781563126252505,0.3422375975059429,-0.7310809508345754,0.05126113828042465,0.07983691092720424,0.8307102229130122,0.0,0.0
0.8016032064128256,0.3279254226269286,-0.7156087439507152,0.052695704867261356,0.07172832934183533,0.7679828380288443,0.0,0.0
0.8216432865731462,0.31389780564022035,-0.7013808493354118,0.05401380726054286,0.06590511966407532,0.8561767401176705,0.0,0.0
0.8416833667334669,0.30018877555205054,-0.6854515044084917,0.05517227279158306,0.05792327655200964,0.8496191312060315,0.0,0.0
0.8617234468937875,0.2867954400677699,-0.6696667742140296,0.05618225816470465,0.05049926865607963,0.8590611696545128,0.0,0.0
0.8817635270541082,0.27372119182187493,-0.6537124122947502,0.05704463803715986,0.04311899362276036,0.8411749069812875,0.0,0.0
0.9018036072144289,0.26095880423979695,-0.6381193791038984,0.05777531072707226,0.03653363449562009,0.8257218174112904,0.0,0.0
0.9218436873747494,0.24850203811211552,-0.622838306384072,0.05838791979504187,0.030630453398480362,0.8633803216615362,0.0,0.0
0.9418837675350701,0.23636540871931874,-0.6068314696398385,0.058864353113001734,0.02382166589799332,0.7933374576428207,0.0,0.0
0.9619238476953907,0.2245214531128735,-0.5921977803222618,0.059248516333852794,0.019208161042552824,0.8214017621426251,0.0,0.0
0.9819639278557114,0.21298100939513998,-0.5770221858866754,0.059526454447984475,0.013896905706584235,0.8043909722029129,0.0,0.0
1.002004008016032,0.20173736121151714,-0.5621824091811414,0.059709855743611574,0.00917006478135481,0.7954969583166348,0.0,0.0
1.0220440881763526,0.19078698600710622,-0.5475187602205456,0.05980507201544711,0.004760813591776873,0.4307699485726245,0.0,0.0
1.0420841683366733,0.17998756755796613,-0.5399709224570038,0.06002562387554042,0.011027593004665336,0.2906826632425644,0.0,0.0
1.062124248496994,0.16928439161135372,-0.5351587973306202,0.06045468042033752,0.02145282723985497,0.482046350593502,0.0,0.0
1.0821643286573146,0.15875199131762824,-0.526620014686275,0.06098323629680161,0.02642779382320435,0.5779764943644573,0.0,0.0
1.1022044088176353,0.14842764009666712,-0.5162175610480562,0.0615586286181045,0.028769616065144644,0.647193136291671,0.0,0.0
1.122244488977956,0.13833817606030496,-0.5044732018181084,0.06214408740353183,0.029272939271366122,0.82928591238743,0.0,0.0
1.1422845691382766,0.12855446884189273,-0.4891853609206114,0.0626370261866454,0.024646939155679032,0.85584710301222,0.0,0.0
1.1623246492985972,0.11908673851828394,-0.4733865161804394,0.06302505959286868,0.019401670311163962,0.8289862630622152,0.0,0.0
1.1823647294589177,0.10992439461076182,-0.458117195376106,0.06332631915039487,0.015062977876309402,0.8700648350870747,0.0,0.0
1.2024048096192383,0.10108337568754697,-0.4420509461607431,0.06351873530713022,0.009620807836767251,0.8904856351950617,0.0,0.0
1.222444889779559,0.09257159269849198,-0.4255891494527494,0.06359160726682911,0.0036435979849444274,0.7253704682835027,0.0,0.0
1.2424849699398797,0.08432461138870881,-0.41234906548915834,0.06364176044560427,0.0025076589387579805,0.731413890337819,0.0,0.0
1.2625250501002003,0.07634477497454926,-0.3989918207079769,0.06366598471145897,0.00121121329273534,0.813826139699427,0.0,0.0
1.282565130260521,0.06866422639665855,-0.38402742889453595,0.06361633606823537,-0.002482432161179805,0.7631076993249789,0.0,0.0
1.3026052104208417,0.06126319410027628,-0.37005161481911353,0.06352210079165246,-0.00471176382914538,0.7983280518715397,0.0,0.0
1.3226452905811623,0.05415544498599236,-0.35538745571419594,0.06336212790467201,-0.00799864434902311,0.8202503714467471,0.0,0.0
1.342685370741483,0.04734957716484153,-0.3402933910575413,0.06312261154023131,-0.011975818222034675,0.8116055385370807,0.0,0.0
1.3627254509018036,0.04084228702914169,-0.3253645067849924,0.06280708263864829,-0.015776445079151574,0.8312663193766939,0.0,0.0
1.3827655310621243,0.034641335212093526,-0.3100475908524081,0.06240207109620753,-0.02025057712203764,0.8476999650414309,0.0,0.0
1.4028056112224447,0.028753249204028313,-0.29440430040326065,0.06189542388453343,-0.02533236058370507,0.8847727197159565,0.0,0.0
1.4228456913827654,0.02319263748908801,-0.2780305857470151,0.06126229766376315,-0.031656311038514164,0.6610744499494329,0.0,0.0
1.442885771543086,0.017872413428279464,-0.26601120304042747,0.0606292633656934,-0.031651714903487484,0.7124315130308825,0.0,0.0
1.4629258517034067,0.01281279390398768,-0.25298097621458926,0.059962343388494585,-0.033345998859940856,0.7495420923091162,0.0,0.0
1.4829659318637274,0.008028447999882131,-0.23921729520527737,0.0592356597524678,-0.03633418180133919,0.7520291911659401,0.0,0.0
1.503006012024048,0.0035205547251973028,-0.22539466373424144,0.05844316763802061,-0.039624605722359256,0.7576766978370896,0.0,0.0
1.5230460921843687,-0.0007084549903751437,-0.2114504857786223,0.057576560952789076,-0.04333033426157681,0.74764339211848,0.0,0.0
1.5430861723446894,-0.004662246420826536,-0.1976895715225696,0.056636220165623696,-0.04701703935826903,0.7330749206600735,0.0,0.0
1.56312625250501,-0.008346233024638671,-0.18419933019060675,0.0556247084954228,-0.05057558351004473,0.7216615033548505,0.0,0.0
1.5831663326653307,-0.01176457699376923,-0.17091719845652795,0.054542298116608566,-0.05412051894071164,0.6984399997828348,0.0,0.0
1.6032064128256511,-0.014926027032696916,-0.1580725019463843,0.05339570970559754,-0.057329420550551555,0.6838290379453619,0.0,0.0
1.6232464929859718,-0.017835954231724085,-0.14549635995135854,0.05218623165336953,-0.060473902611400225,0.5035871009600353,0.0,0.0
1.6432865731462925,-0.020564332376897164,-0.13641890725865383,0.05101149482578294,-0.05873684137932946,0.5730810053725288,0.0,0.0
1.6633266533066131,-0.02308371210523448,-0.12596898641686574,0.049823493982576454,-0.05940004216032414,0.5773514093510408,0.0,0.0
1.6833667334669338,-0.025392086738640973,-0.1154187316703246,0.0486122337514456,-0.06056301155654282,0.5693185444236414,0.0,0.0
1.7034068136272544,-0.027492243032390014,-0.10500781468745214,0.047374758728022714,-0.06187375117114428,0.5735072083353275,0.0,0.0
1.723446893787575,-0.029382191848034405,-0.0944974407822195,0.04610080844862975,-0.06369751396964807,0.559476963903429,0.0,0.0
1.7434869739478958,-0.031067041853714783,-0.0842425002840189,0.04479053626367538,-0.06551360924771857,0.5470868179989412,0.0,0.0
1.7635270541082164,-0.032551251446661766,-0.07421047964734903,0.0434429089493331,-0.06738136571711381,0.5243946011446557,0.0,0.0
1.783567134268537,-0.03384328793675241,-0.06460182450453233,0.042062678292050765,-0.06901153286411671,0.4907984289582327,0.0,0.0
1.8036072144288577,-0.034955863886149484,-0.055628797469853664,0.040660764099318875,-0.07009570963659463,0.46136833145783296,0.0,0.0
1.8236472945891782,-0.03590006037143943,-0.04720982426449738,0.03924551721911977,-0.07076234400995512,0.38721151446307056,0.0,0.0
1.8436873747494988,-0.03670440640955924,-0.0402173019059906,0.037851347431981444,-0.06970848935691638,0.3916804313490543,0.0,0.0
1.8637274549098195,-0.037366759050912815,-0.03311763206767878,0.03646684684705567,-0.06922502924628855,0.3837266268791951,0.0,0.0
1.8837675350701402,-0.0378898251723098,-0.026153306069849308,0.03508792943573268,-0.06894587056614936,0.36814325505498213,0.0,0.0
1.9038076152304608,-0.03827929021400608,-0.019473252084813725,0.03371500470300103,-0.06864623663658254,0.3556574966687254,0.0,0.0
1.9238476953907815,-0.03853963270476705,-0.01301712453804868,0.032346709992395986,-0.0684147355302524,0.34548726632372007,0.0,0.0
1.9438877755511021,-0.03867442900471773,-0.006739814997534037,0.03098035878115066,-0.06831756056226629,0.3689366260076502,0.0,0.0
1.9639278557114228,-0.03867413770913849,1.4564778962224481e-05,0.029593621522468125,-0.06933686293412682,0.30729650865734676,0.0,0.0
1.9839679358717435,-0.038562413339188986,0.005586218497475194,0.028213788621453784,-0.06899164505071705,0.26860799105054756,0.0,0.0
2.004008016032064,-0.03835395696319077,0.010422818799910728,0.026854777512683264,-0.06795055543852599,0.2631738200710489,0.0,0.0
2.024048096192385,-0.03805049976456342,0.015172859931367425,0.025511194021771315,-0.06717917454559746,0.1761860169524131,0.0,0.0
2.0440881763527052,-0.03768560014663133,0.018244980896604396,0.02422543030415153,-0.06428818588098928,0.1786738898644566,0.0,0.0
2.064128256513026,-0.03725791924797676,0.021384044932728538,0.022987923734513707,-0.061875328481891076,0.17731192922638428,0.0,0.0
2.0841683366733466,-0.036767634182652095,0.024514253266233108,0.021791667031723826,-0.059812835139494085,0.17691643445306546,0.0,0.0
2.1042084168336674,-0.03621455669283209,0.027653874491000287,0.020629347705440948,-0.0581159663141438,0.16930548159856362,0.0,0.0
2.124248496993988,-0.03560132376006911,0.030661646638149215,0.01949808696375507,-0.056563037084293895,0.1636003860812454,0.0,0.0
2.1442885771543083,-0.03492983755104003,0.03357431045145381,0.018394087365821647,-0.055199979896671095,0.16064599146800868,0.0,0.0
2.164328657314629,-0.034200934652340295,0.03644514493498679,0.017312114670818335,-0.05409863475016561,0.151262326031818,0.0,0.0
2.1843687374749496,-0.033417966748519136,0.03914839519105813,0.016250833837765485,-0.05306404165264254,0.1397011125326983,0.0,0.0
2.2044088176352705,-0.032585141169189466,0.041641278966483626,0.015210314087904657,-0.05202598749304139,0.12552412297314045,0.0,0.0
2.224448897795591,-0.031707691923087165,0.04387246230511501,0.014192285721801309,-0.05090141830516739,0.17429167030154374,0.0,0.0
2.244488977955912,-0.030766297236255263,0.047069734341595074,0.013161804476076767,-0.05152406228622702,0.13625842388535475,0.0,0.0
2.2645290581162323,-0.02977550312906046,0.04953970535974015,0.012134617634803113,-0.051359342063682735,0.11138824158937838,0.0,0.0
2.284569138276553,-0.028744720121477163,0.051539150379164865,0.011118794557414729,-0.0507911538694192,0.1022643893121961,0.0,0.0
2.3046092184368736,-0.02767721745103259,0.05337513352222859,0.010113266121129222,-0.05027642181427529,0.07948159195178922,0.0,0.0
2.3246492985971945,-0.02658159734172508,0.05478100546537547,0.009125017874380805,-0.0494124123374209,0.06278573036531547,0.0,0.0
2.344689378757515,-0.025464091724955208,0.05587528083849364,0.008157584084629164,-0.04837168948758202,0.04697664849614229,0.0,0.0
2.3647294589178354,-0.02433059246256119,0.056674963119701036,0.007214111711209128,-0.04717361867100182,0.0321891549181652,0.0,0.0
2.3847695390781563,-0.023186599639196795,0.05719964116821963,0.006297301351088798,-0.04584051800601648,0.01851819550370192,0.0,0.0
2.4048096192384767,-0.022037185282670277,0.05747071782632593,0.005409368691123,-0.04439663299828986,0.00675174159484216,0.0,0.0
2.4248496993987976,-0.02088668650988818,0.057524938639104864,0.0045515975124312625,-0.0428885589345869,-0.027944383162009097,0.0,0.0
2.444889779559118,-0.019748396820307806,0.056914484479018555,0.0037388749144409315,-0.040636129899516545,-0.07630386197029823,0.0,0.0
2.464929859719439,-0.018640954424699832,0.055372119780398674,0.0029943648344466405,-0.03722550399971455,-0.06428304511232713,0.0,0.0
2.4849699398797593,-0.01755945514170621,0.05407496414968111,0.002306340784062129,-0.03440120251922557,-0.05847320288143858,0.0,0.0
2.50501002004008,-0.01650143464464901,0.05290102485285996,0.0016670656226480216,-0.031963758070705374,-0.05546937570976239,0.0,0.0
2.5250501002004007,-0.015465537548058425,0.051794854829529245,0.0010707510068012557,-0.029815730792338294,-0.055792670211421126,0.0,0.0
2.5450901803607215,-0.014451719101992132,0.05069092230331467,0.0005138257441271082,-0.027846263133707375,-0.05559091116405606,0.0,0.0
2.565130260521042,-0.013459740951853785,0.04959890750691738,-7.340133353000294e-06,-0.026058293874005423,-0.058603371117550096,0.0,0.0
2.5851703406813624,-0.012490629260934496,0.04845558454596447,-0.0004942708789469896,-0.024346537279699463,-0.05981495910234164,0.0,0.0
2.6052104208416833,-0.011544717255303531,0.04729560028154825,-0.000949328334315581,-0.022752872768429567,-0.06175711499721602,0.0,0.0
2.6252505010020037,-0.01062263238136704,0.04610424369682454,-0.0013742459953864172,-0.02124588305354181,-0.028826337605115604,0.0,0.0
2.6452905811623246,-0.009711402397140221,0.04556149921134094,-0.0017909670240724457,-0.020836051434301426,-0.04108436271891968,0.0,0.0
2.665330661322645,-0.00881569125742126,0.044785556985948015,-0.002194948665918504,-0.02019908209230291,-0.05897597005433533,0.0,0.0
2.685370741482966,-0.007942364936677685,0.04366631603717877,-0.0025782723591957642,-0.01916618466386302,-0.08300505045009836,0.0,0.0
2.7054108216432864,-0.007100690328470341,0.04208373041036721,-0.002929299051773143,-0.017551334628868927,-0.07779585886964915,0.0,0.0
2.7254509018036073,-0.0062885340507289784,0.040607813887068134,-0.003253289590007331,-0.01619952691170941,-0.0813500535037962,0.0,0.0
2.7454909819639277,-0.005507190170673212,0.03906719400278834,-0.003550208005421457,-0.014845920770706294,-0.08465308089793694,0.0,0.0
2.7655310621242486,-0.00475786250280738,0.03746638339329163,-0.0038199945418435333,-0.013489326821103816,-0.08621349971000224,0.0,0.0
2.785571142284569,-0.004041082627596416,0.035838993760548186,-0.004063437723369678,-0.012172159076307221,-0.08709114995368011,0.0,0.0
2.8056112224448895,-0.003357123242674618,0.03419796924608993,-0.004281559349932436,-0.010906081328137888,-0.08758185045621902,0.0,0.0
2.8256513026052104,-0.002706113306264315,0.03255049682051513,-0.004475447894478285,-0.009694427227292437,-0.096057968406316,0.0,0.0
2.845691382765531,-0.002091304836459083,0.0307404234902616,-0.0046413678091067785,-0.008295995731424678,-0.09488940372354514,0.0,0.0
2.8657314629258517,-0.00151219426686086,0.028955528479911154,-0.004781048994122411,-0.0069840592507815925,-0.08943686298139503,0.0,0.0
2.885771543086172,-0.0009666138364212133,0.027279021521982333,-0.0048985618614164365,-0.005875643364701289,-0.08688968663402726,0.0,0.0
2.905811623246493,-0.0004535358863346624,0.025653897504327543,-0.004996137482454198,-0.00487878105188804,-0.08637980721877911,0.0,0.0
2.9258517034068134,2.7266521913043565e-05,0.024040120412385298,-0.00507468945092773,-0.003927598423676624,-0.07991680613873599,0.0,0.0
2.9458917835671343,0.0004783379324481431,0.02255357052675498,-0.005138493760252659,-0.0031902154662464335,-0.08574804446033994,0.0,0.0
2.9659318637274548,0.0008974211380738674,0.020954160281286213,-0.0051845417037526395,-0.002302397174999055,-0.07804224277122826,0.0,0.0
2.9859719438877756,0.0012875363374848037,0.01950575997054681,-0.00521763128953391,-0.0016544792890635395,-0.07770318805304419,0.0,0.0
3.006012024048096,0.0016488253235616606,0.018064449303842847,-0.005238169521256044,-0.0010269115861067215,-0.07036292397089798,0.0,0.0
3.0260521042084165,0.0019841583402548752,0.01676665083466073,-0.0052505797090046935,-0.0006205093874324763,-0.11540894372030204,0.0,0.0
3.0460921843687374,0.0022759608491702867,0.014590125445770567,-0.005228589802032823,0.0010994953485935544,-0.08031746789412916,0.0,0.0
3.066132264529058,0.0025379201279824193,0.013097963940606635,-0.005192588386946232,0.0018000707543295584,-0.0903731909695318,0.0,0.0
