time,x,x_dot,theta,theta_dot,u,x_ref,theta_ref
0.0,-0.22543105214933146,0.013698238384911285,0.16324150998432785,-0.04915008930023961,6.092122784261638,0.0,0.0
0.02004008016032064,-0.22283023264682186,0.13004097512547957,0.1597717840043226,-0.1734862990002632,6.059252272271611,0.0,0.0
0.04008016032064128,-0.21791414761839947,0.24580425142111992,0.1538104154363686,-0.29806842839769887,5.126106176743294,0.0,0.0
0.06012024048096192,-0.211044205836154,0.34349708911227345,0.14585495093295514,-0.3977732251706743,4.04678997596391,0.0,0.0
0.08016032064128256,-0.20263824193525626,0.4202981950448865,0.1364753970400374,-0.468977694645887,2.393556300115664,0.0,0.0
0.1002004008016032,-0.19333751215605194,0.465036488960216,0.12656649147033733,-0.4954452784850036,2.8865327387598723,0.0,0.0
0.12024048096192384,-0.1829469397238355,0.5195286216108222,0.11577867310859619,-0.5393909180870569,1.351428245041801,0.0,0.0
0.1402805611222445,-0.17206172234482592,0.5442608689504793,0.10493314944367477,-0.5422761832460706,-0.44661044945445094,0.0,0.0
0.16032064128256512,-0.1613798773263129,0.534092250925651,0.09500630742432446,-0.4963421009675152,1.6327800614979024,0.0,0.0
0.18036072144288576,-0.15008789322130364,0.5645992052504629,0.08472640183339929,-0.513995279546259,1.4770260825410366,0.0,0.0
0.2004008016032064,-0.13824355772385757,0.5922167748723034,0.07411874144616726,-0.5303830193616015,0.43031540788592193,0.0,0.0
0.22044088176352705,-0.12625212193139274,0.5995717896232424,0.06372632117025386,-0.5196210137956703,-0.11194629328807681,0.0,0.0
0.24048096192384769,-0.11432223366395748,0.5964944133717627,0.053800200548114324,-0.49630603110697674,0.2644818207122028,0.0,0.0
0.2605210420841683,-0.10230428926320496,0.6008972200376256,0.044058264314120035,-0.48709681169971425,-0.354706556913057,0.0,0.0
0.280561122244489,-0.09043714771571817,0.5933570773743396,0.03480098872651177,-0.46286377938041323,0.22198986055492037,0.0,0.0
0.3006012024048096,-0.07849320849119235,0.5971969612262912,0.02563311900677974,-0.4583934859866015,-0.25606222314184424,0.0,0.0
0.32064128256513025,-0.0666564253772841,0.5918391556954121,0.016776442389174515,-0.44283383088026135,-0.11830429980736479,0.0,0.0
0.3406813627254509,-0.054870550297557136,0.5892937539863482,0.008094648629329394,-0.43408968799225606,-0.6105803554955982,0.0,0.0
0.3607214428857715,-0.04332522880073377,0.5772660748411681,-0.00017898566300643404,-0.4136817146167914,-0.9491580556526409,0.0,0.0
0.3807615230460922,-0.03215024281262017,0.5587492994056802,-0.00789851545218297,-0.38597648945882684,-0.8918652838718655,0.0,0.0
0.4008016032064128,-0.021321043376013968,0.54145997183031,-0.01514611933498178,-0.3623801941399405,-1.001841325966937,0.0,0.0
0.42084168336673344,-0.01087848008720307,0.5221281644405449,-0.021903197871962328,-0.3378539268490275,-2.310104091210296,0.0,0.0
0.4408817635270541,-0.0013311207532864713,0.4773679666958299,-0.027447331165960223,-0.2772066646998947,-2.0082816361058944,0.0,0.0
0.4609218436873747,0.007440419784281196,0.43857702687838335,-0.03199017044143949,-0.2271419637739633,-1.6357945646840735,0.0,0.0
0.48096192384769537,0.015582808819373907,0.4071194517546356,-0.035778307123481824,-0.18940683410211676,-1.3032491473144672,0.0,0.0
0.501002004008016,0.0232269042848143,0.38220477327201957,-0.039030148544382436,-0.16259207104503065,-1.3899063954780118,0.0,0.0
0.5210420841683366,0.030339837179183576,0.35564664471846374,-0.04171564586791184,-0.13427486617647047,-1.289149348608998,0.0,0.0
0.5410821643286573,0.036961701552911376,0.3310932186863901,-0.04391070462032426,-0.10975293762062077,-1.2808964320000151,0.0,0.0
0.561122244488978,0.04309635533956345,0.3067326893326037,-0.04563405873370493,-0.08616770566903331,-1.2251667809707973,0.0,0.0
0.5811623246492986,0.04876604351303934,0.28348440867379465,-0.046929193289541614,-0.06475672779183439,-1.0139507043302056,0.0,0.0
0.6012024048096192,0.05405355125508551,0.26437538710230807,-0.04792771611610138,-0.049926141327988185,-0.9213159086978857,0.0,0.0
0.6212424849699398,0.05899531004130279,0.24708793931086406,-0.048690065751160826,-0.03811748175297214,-0.8636784103395857,0.0,0.0
0.6412825651302605,0.06361402790069268,0.2309358929694943,-0.049254736290247625,-0.028233526954340078,-0.7707712147659986,0.0,0.0
0.6613226452905812,0.06794611618694298,0.2166044143125152,-0.04967957204972461,-0.0212417879738495,-0.9187001483208219,0.0,0.0
0.6813627254509018,0.0719339819453863,0.19939328792216626,-0.04988084652218016,-0.0100637236227775,-0.88129831001591,0.0,0.0
0.7014028056112224,0.07559227593428154,0.18291469944476188,-0.04988168125937118,-4.1736859551068026e-05,-0.7400212075087212,0.0,0.0
0.721442885771543,0.07897611848014657,0.16919212729325145,-0.049764607251199085,0.005853700408604876,-0.88372007038688,0.0,0.0
0.7414829659318637,0.08202941103283491,0.15266462763441682,-0.049444943831837194,0.01598317096809458,-0.8200590831371879,0.0,0.0
0.7615230460921844,0.08477689919377655,0.13737440804708217,-0.04895785689257883,0.02435434696291821,-0.6659189152810885,0.0,0.0
0.781563126252505,0.08727858163564095,0.1250841220932199,-0.048390310660617705,0.02837731159805642,-0.7537972894914897,0.0,0.0
0.8016032064128256,0.08950000872533632,0.11107135448476842,-0.0476873821015276,0.03514642795450539,-0.6323654303640026,0.0,0.0
0.8216432865731462,0.09148835617423152,0.09941737244476004,-0.0469155701329889,0.03859059842693502,-0.47825991993069106,0.0,0.0
0.8416833667334669,0.09330352863836769,0.0907586232068083,-0.04616003370477847,0.03777682141052177,-0.6815686630614601,0.0,0.0
0.8617234468937875,0.09486598569164584,0.07812285266390762,-0.04529721961202294,0.04314070463777647,-0.47931134156178956,0.0,0.0
0.8817635270541082,0.09625439352236606,0.0694203915360112,-0.04443985265275096,0.042868347963598945,-0.4688429189651507,0.0,0.0
0.9018036072144289,0.09747259093723484,0.06090987074343883,-0.043588638627195815,0.04256070127775719,-0.47746394338052256,0.0,0.0
0.9218436873747494,0.09851697036542832,0.05221897140967406,-0.04273316797155073,0.04277353278225423,-0.5553055101626329,0.0,0.0
0.9418837675350701,0.09935691486535055,0.04199722499611136,-0.041822553897449335,0.04553070370506968,-0.5430892184355107,0.0,0.0
0.9619238476953907,0.09999692957771343,0.03200073561814416,-0.04085818591009951,0.048218399367491525,-0.5282730765975799,0.0,0.0
0.9819639278557114,0.10044251867038224,0.022279454633440395,-0.039842634173120006,0.050777586848974945,-0.5106595413907409,0.0,0.0
1.002004008016032,0.10070026317841702,0.012887225401738266,-0.038779781447293236,0.053142636291338446,-0.5065862395695719,0.0,0.0
1.0220440881763526,0.1007714474783473,0.003559214996514388,-0.03766529903921723,0.05572412040380022,-0.38775058660338607,0.0,0.0
1.0420841683366733,0.10070211974007708,-0.003466386913511813,-0.03656161091135424,0.05518440639314956,-0.40711036534004147,0.0,0.0
1.062124248496994,0.10048440982407511,-0.010885495800097999,-0.035450437320350664,0.055558679550178826,-0.3661290503443307,0.0,0.0
1.0821643286573146,0.1001339897601252,-0.017521003197495333,-0.03434872258197973,0.05508573691854669,-0.4661356546337099,0.0,0.0
1.1022044088176353,0.09961152208918597,-0.026123383546962017,-0.03319105440568887,0.05788340881454333,-0.36856861553915365,0.0,0.0
1.122244488977956,0.0989547447814909,-0.03283886538475345,-0.03202716419249471,0.05819451065970805,-0.33621355557745664,0.0,0.0
1.1422845691382766,0.09817594910713388,-0.0389397837178508,-0.03086862447910644,0.05792698566941357,-0.3714188200491203,0.0,0.0
1.1623246492985972,0.09726106605599363,-0.04574415255701227,-0.029687543724097935,0.05905403775042516,-0.3194176099220691,0.0,0.0
1.1823647294589177,0.09623004793917204,-0.051550905841079145,-0.028506873991198632,0.05903348664496516,-0.32644273788246214,0.0,0.0
1.2024048096192383,0.09507981519938631,-0.05751163698928695,-0.027315059660830324,0.05959071651841544,-0.2859642714005662,0.0,0.0
1.222444889779559,0.09382582112680615,-0.06269970362900762,-0.026128250841481168,0.05934044096745777,-0.2641692727618074,0.0,0.0
1.2424849699398797,0.09247623020939069,-0.06747954587077319,-0.0249517059190076,0.05882724612367838,-0.25494340868440385,0.0,0.0
1.2625250501002003,0.09103430536032435,-0.07209624245331737,-0.023783398869969344,0.05841535245191287,-0.2538329588294147,0.0,0.0
1.282565130260521,0.0895001451366583,-0.07670801118330235,-0.022616610139655772,0.05833943651567863,-0.22764618700744033,0.0,0.0
1.3026052104208417,0.08788363356153588,-0.08082557875612136,-0.021459294383560003,0.05786578780478846,-0.22409854448286612,0.0,0.0
1.3226452905811623,0.08618582336763568,-0.08489050969500944,-0.020306227088328403,0.05765336476157993,-0.19071371976391382,0.0,0.0
1.342685370741483,0.08441941137643005,-0.08832059956028133,-0.01916966040890405,0.056828333971217684,-0.18953096246822476,0.0,0.0
1.3627254509018036,0.08258453348281204,-0.09174389468090047,-0.018043118179508953,0.05632711146975487,-0.16756551502902367,0.0,0.0
1.3827655310621243,0.08068943817666677,-0.09475476530726355,-0.01693234245833431,0.05553878605873214,-0.1350312870089876,0.0,0.0
1.4028056112224447,0.07874650263461984,-0.09714677710234661,-0.01584935671756246,0.05414928703859259,-0.12963907572892708,0.0,0.0
1.4228456913827654,0.07675752073630412,-0.09944909491578591,-0.014790485361705874,0.052943567792829244,-0.087216424611707,0.0,0.0
1.442885771543086,0.07473874326553055,-0.1009388735386788,-0.013773864012472973,0.05083106746164509,-0.09324348563695008,0.0,0.0
1.4629258517034067,0.07268752711150434,-0.10256080770131054,-0.012789556817138642,0.04921535976671649,-0.08903219595356411,0.0,0.0
1.4829659318637274,0.07060523360160739,-0.10411467549484704,-0.011833820087880541,0.04778683646290503,-0.07753453580329306,0.0,0.0
1.503006012024048,0.06849607553666542,-0.10545790324709858,-0.010907352292580563,0.04632338976499893,-0.06762274505574806,0.0,0.0
1.5230460921843687,0.06636365526241657,-0.10662101371244267,-0.010010108953438812,0.04486216695708751,-0.06226312138519058,0.0,0.0
1.5430861723446894,0.06420980713510391,-0.1076924063656332,-0.009139567214203885,0.043527086961746356,-0.05271931961123774,0.0,0.0
1.56312625250501,0.06203800591915116,-0.10859006079763758,-0.008295820127130286,0.042187354353679984,-0.04006995862749032,0.0,0.0
1.5831663326653307,0.05985294591944296,-0.1092529999854101,-0.0074809463657937465,0.040743688066826975,-0.03170296537856141,0.0,0.0
1.6032064128256511,0.05765765863187162,-0.10976436437856688,-0.006694701763048132,0.039312230137280725,-0.024217704895977063,0.0,0.0
1.6232464929859718,0.055454839679330875,-0.11014094762703713,-0.005936506937226667,0.03790974129107323,-0.07972908531059572,0.0,0.0
1.6432865731462925,0.05322260985129085,-0.11161149140200124,-0.005169108783370599,0.03836990769280341,-0.02781910442921323,0.0,0.0
1.6633266533066131,0.05098100578485022,-0.11208020332203121,-0.00441803348227954,0.037553765054552934,-0.021593639625094446,0.0,0.0
1.6833667334669338,0.048732241561414764,-0.11243821117177275,-0.0036821864851904152,0.03679234985445624,-0.0009966853564687267,0.0,0.0
1.7034068136272544,0.04648414374884802,-0.11240489062833742,-0.002968976157315987,0.03566051639372142,0.017968878348270566,0.0,0.0
1.723446893787575,0.044243908795741915,-0.11201174765530497,-0.0022849993498575056,0.03419884037292406,0.029088989027725567,0.0,0.0
1.7434869739478958,0.04201568003082184,-0.1114114382460039,-0.001632447921286328,0.032627571428558884,0.03899124240221816,0.0,0.0
1.7635270541082164,0.039803134547305406,-0.11062727417582172,-0.0010129994836195692,0.03097242188333794,0.04917068967705895,0.0,0.0
1.783567134268537,0.03761006709120106,-0.10965337280521728,-0.0004287025383423712,0.029214847263859898,0.05457836248826617,0.0,0.0
1.8036072144288577,0.03543842040945431,-0.10858233408733745,0.00012096412143125881,0.0274833329886815,0.060232613894172324,0.0,0.0
1.8236472945891782,0.03329024339274934,-0.1074088508352485,0.0006361590977342322,0.02575974881514867,-0.023667159271172453,0.0,0.0
1.8436873747494988,0.03113264849536553,-0.10787974486919036,0.001169210347268515,0.026652562476714135,0.009436286785764879,0.0,0.0
1.8637274549098195,0.028978400760285607,-0.10771238675399604,0.0017041146538936307,0.02674521533125579,0.04447887364725253,0.0,0.0
1.8837675350701402,0.026841021399988063,-0.10686896801487715,0.0022237461698938273,0.02598157580000983,0.0598350273139161,0.0,0.0
1.9038076152304608,0.02472635384234157,-0.10573337788232456,0.0027223987946600114,0.024932631238309202,0.07471354923070389,0.0,0.0
1.9238476953907815,0.022640061140471512,-0.10431463509350297,0.003194513564784041,0.023605738506201495,0.09018043783274786,0.0,0.0
1.9438877755511021,0.02058804354581965,-0.10260087973259316,0.0036340200244187712,0.021975322981736507,0.0962723827322017,0.0,0.0
1.9639278557114228,0.01857255230802628,-0.10077456188966853,0.004040126176447902,0.020305307601456532,0.09359371494042522,0.0,0.0
1.9839679358717435,0.01659242573079209,-0.09900632886170949,0.004416959943102488,0.01884168833272933,0.09945064109102245,0.0,0.0
2.004008016032064,0.014649841315485433,-0.09712922076533287,0.004763471607517525,0.017325583220751836,0.1042736872140138,0.0,0.0
2.024048096192385,0.012746581807162982,-0.09516297541612258,0.0050790250367108505,0.015777671459666257,-0.007005827234615444,0.0,0.0
2.0440881763527052,0.010839132663475907,-0.09537245718435378,0.00543070479775085,0.01758398805200001,0.03776327785879129,0.0,0.0
2.064128256513026,0.008944863129169239,-0.09471347671533348,0.005794540226201611,0.01819177142253804,0.07478387706399303,0.0,0.0
2.0841683366733466,0.0070781152904794975,-0.09333739193448708,0.006151170013676463,0.017831489373742584,0.09610968370815444,0.0,0.0
2.1042084168336674,0.0052471087865079424,-0.09155032519857774,0.006490368359572118,0.016959917294782734,0.1116700031467827,0.0,0.0
2.124248496993988,0.003457818409148979,-0.08946451886794818,0.006805172178105997,0.015740190926693955,0.12976229201160344,0.0,0.0
2.1442885771543083,0.0017172139747988393,-0.08703022171750699,0.00708698349699131,0.014090565944265658,0.11580659685183718,0.0,0.0
2.164328657314629,1.9768838569665182e-05,-0.0848722568114587,0.007345743015966958,0.012937975948782385,0.11971161132140741,0.0,0.0
2.1843687374749496,-0.0016330673443945547,-0.082641809148211,0.007580798305989094,0.011752764501106808,0.11007350002298967,0.0,0.0
2.2044088176352705,-0.0032451229833247667,-0.0806027819465106,0.007799269569762273,0.01092356318865897,0.14126969020639604,0.0,0.0
2.224448897795591,-0.004804287192294771,-0.07795821044850021,0.00798428625082236,0.00925083405300428,-0.005419438211563904,0.0,0.0
2.244488977955912,-0.006367854668161483,-0.07817837379333557,0.00822282127708287,0.011926751313025542,0.08286899184534521,0.0,0.0
2.2645290581162323,-0.00790144148727047,-0.0766793409554493,0.008464734371503923,0.012095654721052635,0.09935516693546673,0.0,0.0
2.284569138276553,-0.009398683686782953,-0.07486210997562416,0.008701907495839946,0.011858656216801109,0.13332785230964062,0.0,0.0
2.3046092184368736,-0.0108463922959804,-0.07238543045987234,0.008915964065983764,0.010702828507190922,0.12652100413279746,0.0,0.0
2.3246492985971945,-0.012247284873286244,-0.07004462886529224,0.009112235669202608,0.009813580160942238,0.13967173879400716,0.0,0.0
2.344689378757515,-0.01359628595451924,-0.06745005406164978,0.009284267613855587,0.008601597232648946,0.1489069960638866,0.0,0.0
2.3647294589178354,-0.014889841042058021,-0.06467775437693905,0.00942774270975337,0.0071737547948892,0.15295830149872283,0.0,0.0
2.3847695390781563,-0.016126410353813275,-0.06182846558776263,0.009541196010277772,0.00567266502622008,0.1510034653379077,0.0,0.0
2.4048096192384767,-0.017306789239026593,-0.05901894426066592,0.00962648649050867,0.004264524011544886,0.15179567058758656,0.0,0.0
2.4248496993987976,-0.01843069301269623,-0.056195188683481924,0.009683688650054123,0.002860107977272667,0.01942006840386229,0.0,0.0
2.444889779559118,-0.01954979413087455,-0.0559550559089159,0.009790595298178616,0.005345332406224707,0.08846531951217106,0.0,0.0
2.464929859719439,-0.020637180159752664,-0.05436930144390572,0.009907493128543575,0.005844891518247918,0.11044833107888657,0.0,0.0
2.4849699398797593,-0.02168430632143308,-0.05235630808402072,0.010022260560017482,0.005738371573695384,0.11616426053856047,0.0,0.0
2.50501002004008,-0.022688975024337067,-0.05023343514519951,0.010132277876162823,0.0055008658072671045,0.13822028678824383,0.0,0.0
2.5250501002004007,-0.023642611032409836,-0.04768180040363837,0.010225337452505038,0.004652978817110764,0.15138122859110453,0.0,0.0
2.5450901803607215,-0.0245401053196646,-0.04487471436273824,0.01029432782983379,0.0034495188664375753,0.18403628179526826,0.0,0.0
2.565130260521042,-0.025368734910452103,-0.04143147953937517,0.010320582923864641,0.0013127547015426271,0.18256513252551337,0.0,0.0
2.5851703406813624,-0.026129081409888323,-0.03801732497181107,0.010305128854191334,-0.0007727034836653166,0.17649527456210562,0.0,0.0
2.6052104208416833,-0.026823508986290736,-0.03472137882012069,0.01025141864543183,-0.0026855104379752263,0.1699177745390018,0.0,0.0
2.6252505010020037,-0.027454568933300217,-0.03155299735047404,0.010162960990096335,-0.004422882766774759,0.032219821087368844,0.0,0.0
2.6452905811623246,-0.02807596881548092,-0.031069994109035135,0.010119742893029336,-0.0021609048533499627,0.09099242123524222,0.0,0.0
2.665330661322645,-0.02866476182098512,-0.029439650275210068,0.010087113440045255,-0.0016314726492040127,0.10905636554966555,0.0,0.0
2.685370741482966,-0.02921388962829225,-0.02745639036535648,0.010054300552530157,-0.0016406443757548729,0.12378256838058067,0.0,0.0
2.7054108216432864,-0.029717596326320633,-0.025185334901419106,0.010012483363638506,-0.0020908594445826108,0.13303867767400077,0.0,0.0
2.7254509018036073,-0.03017225797944732,-0.02273308265633435,0.009955983889867794,-0.0028249736885356228,0.1370539131565835,0.0,0.0
2.7454909819639277,-0.030576291553238055,-0.020201678689536845,0.00988209714601969,-0.0036943371924051693,0.13397541773743366,0.0,0.0
2.7655310621242486,-0.030930877167413197,-0.01772928070875716,0.009792157902672152,-0.004496962167376986,0.13753014078764242,0.0,0.0
2.785571142284569,-0.03123460190372425,-0.015186236815552635,0.009683519655341402,-0.005431912366537421,0.13958587473096515,0.0,0.0
2.8056112224448895,-0.03148663242349535,-0.012601525988555191,0.009554294791063532,-0.0064612432138935385,0.13880018370495087,0.0,0.0
2.8256513026052104,-0.03168723827666807,-0.010030292658636092,0.009404127934973364,-0.007508342804508381,0.07634142680261138,0.0,0.0
2.845691382765531,-0.03186074929211415,-0.008675550772304072,0.009268606922995797,-0.006776050598878396,0.1087329404727475,0.0,0.0
2.8657314629258517,-0.031994486694924544,-0.0066868701405195415,0.009127929905572214,-0.0070338508711791205,0.11767349407088637,0.0,0.0
2.885771543086172,-0.03208492134507357,-0.004521732507451255,0.008975979993184618,-0.007597495619379824,0.12087989584135142,0.0,0.0
2.905811623246493,-0.032130758471295165,-0.0022918563110797055,0.008809923360093107,-0.008302831654575522,0.12234534665671509,0.0,0.0
2.9258517034068134,-0.03213137861817531,-3.100734400727622e-05,0.008627855576325522,-0.009103389188379277,0.1221192169524373,0.0,0.0
2.9458917835671343,-0.0320868178351947,0.0022280391490305256,0.008428760723496602,-0.009954742641446052,0.12069780768244953,0.0,0.0
2.9659318637274548,-0.031997573717501726,0.0044622058846486455,0.00821221468265948,-0.01082730204185605,0.11804498954760693,0.0,0.0
2.9859719438877756,-0.031864619383311574,0.006647716709507685,0.007978403598171565,-0.011690554224395756,0.11448213414222898,0.0,0.0
3.006012024048096,-0.03168927812080433,0.008767063125362002,0.007727937069903624,-0.012523326413396995,0.11025228740076018,0.0,0.0
3.0260521042084165,-0.03147312872086117,0.01080746999715819,0.007461709831426583,-0.013311361923852065,0.07033936178913643,0.0,0.0
3.0460921843687374,-0.031231669868412377,0.012072942622439777,0.007201390225456206,-0.013015980298518862,0.07412138377402805,0.0,0.0
