time,x,x_dot,theta,theta_dot,u,x_ref,theta_ref
0.0,-0.029455242847228558,-0.03932649242771396,-0.09257288751848165,0.09703142926844055,-3.8952730949825676,0.0,0.0
0.02004008016032064,-0.031734510571548816,-0.1139633862160129,-0.08894734407520759,0.1812771721637033,-3.5223019573591987,0.0,0.0
0.04008016032064128,-0.03536218993775604,-0.18138396831036135,-0.08383043211300317,0.2558455981102207,-2.7970955946728053,0.0,0.0
0.06012024048096192,-0.04005701228671877,-0.2347411174481363,-0.07761146151802963,0.3109485297486775,-1.9582895478751965,0.0,0.0
0.08016032064128256,-0.045493673356064954,-0.27183305346730924,-0.07073938810658494,0.3436036705722344,-1.3468132448445747,0.0,0.0
0.1002004008016032,-0.05143566533329974,-0.2970995988617395,-0.06352702753640022,0.3606180285092363,-1.363526510438372,0.0,0.0
0.12024048096192384,-0.05789159027987842,-0.3227962473289341,-0.05591885764809554,0.38040849441523383,-1.3029047796515658,0.0,0.0
0.1402805611222445,-0.06483999293202848,-0.347420132607503,-0.04790201282874731,0.4008422409674115,-1.0801090856341449,0.0,0.0
0.16032064128256512,-0.07219625454362687,-0.3678130805799191,-0.03955584329972541,0.41730847645109476,-0.5243936003023363,0.0,0.0
0.18036072144288576,-0.07974593411352837,-0.3774839784950753,-0.031152337324175616,0.42017529877748977,1.0736034112476438,0.0,0.0
0.2004008016032064,-0.08686787964418341,-0.3560972765327516,-0.023572752272608508,0.3789792525783553,0.32438242575397425,0.0,0.0
0.22044088176352705,-0.09385655984186833,-0.3494340098842464,-0.016331393239595652,0.3620679516506428,0.69022124073264,0.0,0.0
0.24048096192384769,-0.10057126448270343,-0.3357352320417545,-0.009596650426621642,0.33673714064870053,0.4784285530609772,0.0,0.0
0.2605210420841683,-0.10709654575130585,-0.326264063430121,-0.003202244316227969,0.31972030551968367,0.5032580112777144,0.0,0.0
0.280561122244489,-0.1134245312842636,-0.316399276647887,0.0028775871528064602,0.30399157345172145,0.5398764384602723,0.0,0.0
0.3006012024048096,-0.11954266271454608,-0.30590657151412454,0.008659745006217974,0.28910789267057563,0.8577653147505186,0.0,0.0
0.32064128256513025,-0.12532854153776787,-0.28929394116108953,0.013994740776458337,0.26674978851201814,0.8436280943098373,0.0,0.0
0.3406813627254509,-0.13078921080221353,-0.2730334632222833,0.018924509634171048,0.24648844288563554,0.9539144125987589,0.0,0.0
0.3607214428857715,-0.13588304813895746,-0.2546918668371959,0.023415672732823238,0.22455815493260942,0.9220650522088694,0.0,0.0
0.3807615230460922,-0.14062377211970642,-0.23703619903744808,0.027515227327663205,0.2049777297419984,1.1009721790205709,0.0,0.0
0.4008016032064128,-0.14494275174659443,-0.21594898134440044,0.03114446791861135,0.18146202954740712,1.2398827187108186,0.0,0.0
0.42084168336673344,-0.14878683186675154,-0.19220400600785503,0.0342451349290804,0.15503335052345243,1.2539589963136273,0.0,0.0
0.4408817635270541,-0.15215141779415584,-0.16822929637021478,0.0368286276194354,0.12917463451775,1.4062927386384187,0.0,0.0
0.4609218436873747,-0.1549778199053689,-0.1413201055606541,0.03882226403746965,0.09968182090171232,1.3521537453481756,0.0,0.0
0.48096192384769537,-0.15728774246360472,-0.11549612791179044,0.04027032342993345,0.07240296962318998,1.284776876817097,0.0,0.0
0.501002004008016,-0.1591078960111108,-0.09100767737530491,0.041221361064563145,0.047551881731485036,1.0293828713356883,0.0,0.0
0.5210420841683366,-0.16053820630787885,-0.07151551483840163,0.041830657124038204,0.03046480297375288,0.8351148654143653,0.0,0.0
0.5410821643286573,-0.1616546486252066,-0.055822115866387245,0.04221559582182752,0.01924693488946569,0.780243302061586,0.0,0.0
0.561122244488978,-0.1624787436167916,-0.04120474957925027,0.04241067687042451,0.0097540524298496,0.7263879090331735,0.0,0.0
0.5811623246492986,-0.16303156058764645,-0.027640848542742437,0.04244860503719502,0.0018964083385252309,0.7072734717422805,0.0,0.0
0.6012024048096192,-0.16332056847797308,-0.014450394516331204,0.042340789980848115,-0.005390752817345012,0.6394175104120078,0.0,0.0
0.6212424849699398,-0.16337221199830282,-0.002582176016486524,0.04212620366750394,-0.010729315667208555,0.7597799577911819,0.0,0.0
0.6412825651302605,-0.16313946700855808,0.011637249487236686,0.04173315340490895,-0.019652513129749756,0.7536989774851863,0.0,0.0
0.6613226452905812,-0.16262459300692533,0.02574370008163735,0.04116270868843435,-0.028522235823730063,0.691954223947741,0.0,0.0
0.6813627254509018,-0.16185151718072194,0.03865379131016912,0.040447348260865754,-0.03576802137842991,0.5819057216512069,0.0,0.0
0.7014028056112224,-0.16086297239159622,0.04942723945628636,0.039646867496688006,-0.04002403820888731,0.640713757564704,0.0,0.0
0.721442885771543,-0.15963578292292752,0.06135947343343465,0.038721841368934785,-0.046251306387661076,0.5744370455070492,0.0,0.0
0.7414829659318637,-0.15819554289726967,0.07201200128289297,0.037705163774795436,-0.050833879706967525,0.5964112494761683,0.0,0.0
0.7615230460921844,-0.15653338626782987,0.08310783147199025,0.036577571023787565,-0.05637963755039342,0.49799169454849623,0.0,0.0
0.781563126252505,-0.1546873911431842,0.09229975623228404,0.03538947095896438,-0.05940500324115939,0.5399969284874045,0.0,0.0
0.8016032064128256,-0.1526408265291903,0.1023282306996943,0.034108809544538814,-0.0640330707212782,0.4491497432487357,0.0,0.0
0.8216432865731462,-0.15042877258761694,0.11060269707866845,0.032780609149147086,-0.06641001976958627,0.424778586710283,0.0,0.0
0.8416833667334669,-0.14806035783578464,0.11842073759161548,0.0314107350515758,-0.06849370487856413,0.40400881555047136,0.0,0.0
0.8617234468937875,-0.14554329371675315,0.12585320595157526,0.030002685503251286,-0.07040247741622581,0.31039392652817027,0.0,0.0
0.8817635270541082,-0.14291370501970202,0.13147943485255598,0.028602309578717004,-0.07001879622671413,0.35016942994125166,0.0,0.0
0.9018036072144289,-0.14015567003874954,0.1379017490476246,0.027177516943994114,-0.07123963173614452,0.3283494266019423,0.0,0.0
0.9218436873747494,-0.13727729460608032,0.1439187716334606,0.025732077324170086,-0.07227198099120152,0.31562332515526276,0.0,0.0
0.9418837675350701,-0.13428313021739488,0.1497082194342721,0.024264313638798295,-0.07338818426858947,0.3173896012363468,0.0,0.0
0.9619238476953907,-0.13117206693548084,0.1555531640957028,0.02276393377947514,-0.07501899296615777,0.2991786317553863,0.0,0.0
0.9819639278557114,-0.12795078076090416,0.16106430872883382,0.021232122432492676,-0.07659056734912328,0.27460558156156395,0.0,0.0
1.002004008016032,-0.12462842131455124,0.1661179723176459,0.019673587551912536,-0.07792674402900693,0.2538693029877006,0.0,0.0
1.0220440881763526,-0.12121263348469342,0.17078939149289027,0.018090625715722678,-0.07914809180949296,0.302254144756038,0.0,0.0
1.0420841683366733,-0.11768408300717394,0.17642752387597405,0.016444953856167923,-0.0822835929777378,0.2650369224522434,0.0,0.0
1.062124248496994,-0.11405682087569118,0.18136310657413807,0.014747958584139667,-0.08484976360141276,0.2210487965509383,0.0,0.0
1.0821643286573146,-0.1103475256723395,0.18546476016758356,0.013014664625478489,-0.08666469793305896,0.18390990490824524,0.0,0.0
1.1022044088176353,-0.10657019302874106,0.18886663217992225,0.011255863159391437,-0.08794007330435258,0.1656088573231871,0.0,0.0
1.122244488977956,-0.10273146043685666,0.1919366295942202,0.009471166867206652,-0.08923481460923931,0.12322421745055923,0.0,0.0
1.1422845691382766,-0.09884735599387466,0.19420522214909955,0.007674113202786398,-0.0898526832210127,0.07450173527512513,0.0,0.0
1.1623246492985972,-0.09493637753707582,0.19554892283994188,0.005881870040798205,-0.08961215809940962,0.012313438067253768,0.0,0.0
1.1823647294589177,-0.09102227906483744,0.19570492361191869,0.0041195134539155675,-0.08811782934413187,-0.03452611388225601,0.0,0.0
1.2024048096192383,-0.08712283373163647,0.19497226666004833,0.0024033302013507533,-0.0858091626282407,-0.08809534861883159,0.0,0.0
1.222444889779559,-0.08325845402057404,0.19321898555312128,0.0007538351179638692,-0.0824747541693442,-0.3540066273247785,0.0,0.0
1.2424849699398797,-0.07953243289486389,0.1863010562855074,-0.0006838219950207854,-0.07188285564923273,-0.25412857590963683,0.0,0.0
1.2625250501002003,-0.07590538342099239,0.1813524736935751,-0.0019771327544460867,-0.06466553797126505,-0.21692206947196668,0.0,0.0
1.282565130260521,-0.07236241601265855,0.17714837041669157,-0.0031560177112244527,-0.0589442478389183,-0.20336204930498133,0.0,0.0
1.3026052104208417,-0.06889790130851145,0.17322573520735524,-0.004235843463128709,-0.05399128759521283,-0.1996428918309988,0.0,0.0
1.3226452905811623,-0.06551007847033691,0.16939114190872745,-0.005225595429296258,-0.0494875983083774,-0.20654732972175052,0.0,0.0
1.342685370741483,-0.06220135805443264,0.1654360207952137,-0.00612747666257491,-0.045094061663932594,-0.19795582546729515,0.0,0.0
1.3627254509018036,-0.05896812888013471,0.16166145871489643,-0.006952200719781919,-0.041236202860350485,-0.22059426152308081,0.0,0.0
1.3827655310621243,-0.05581898857675167,0.15745701516915211,-0.007691726378741922,-0.03697628294800011,-0.18416901461505925,0.0,0.0
1.4028056112224447,-0.052739511081088236,0.15397387478317173,-0.008372024839330363,-0.03401492302942204,-0.21270229637687726,0.0,0.0
1.4228456913827654,-0.049740635722024314,0.14994376795319625,-0.008980696030130977,-0.030433559540030745,-0.09272148831015044,0.0,0.0
1.442885771543086,-0.046775368607380116,0.14826335573220972,-0.0095917611738468,-0.03055325718579115,-0.13435969427618777,0.0,0.0
1.4629258517034067,-0.04385978280326962,0.14577929020552477,-0.010184717788542314,-0.02964783073477565,-0.13040315079952647,0.0,0.0
1.4829659318637274,-0.04099216440359324,0.14338091998381888,-0.01076561966773906,-0.029045093959837297,-0.15455878519273328,0.0,0.0
1.503006012024048,-0.03818177297652765,0.1405195713532794,-0.011324000758745179,-0.02791905455030589,-0.1779329126869144,0.0,0.0
1.5230460921843687,-0.03543756956169159,0.13721017074180314,-0.011849710318063726,-0.026285477965927333,-0.18673898399915498,0.0,0.0
1.5430861723446894,-0.0327628397651496,0.13373648982709954,-0.012340912999115883,-0.024560134052607825,-0.20585177870374946,0.0,0.0
1.56312625250501,-0.03016490098561308,0.12989693897682592,-0.012789527270191944,-0.022430713553803026,-0.2112872827930041,0.0,0.0
1.5831663326653307,-0.02764574564280623,0.12595776714034243,-0.01319520325773967,-0.020283799377386356,-0.21050120501970346,0.0,0.0
1.6032064128256511,-0.025204950671234988,0.12203974857856215,-0.013560959414534873,-0.018287807839760122,-0.23114959624522338,0.0,0.0
1.6232464929859718,-0.022850468629257607,0.11772410209886905,-0.013877025135367309,-0.015803286041621775,-0.19785905345344554,0.0,0.0
1.6432865731462925,-0.02056921822582221,0.11406252017176989,-0.014164865904518218,-0.014392038457545461,-0.2241610106667419,0.0,0.0
1.6633266533066131,-0.018371380493939417,0.10989188659413957,-0.014410912965652032,-0.012302353056690703,-0.22028325608384425,0.0,0.0
1.6833667334669338,-0.016255371701765543,0.10580043960869369,-0.014618986331240511,-0.010403668279423945,-0.23265537752530188,0.0,0.0
1.7034068136272544,-0.014225960034876653,0.1014705833444445,-0.014783161902941567,-0.008208778585052798,-0.21865541469853111,0.0,0.0
1.723446893787575,-0.012277635350421404,0.09741623422276241,-0.014912663788378723,-0.006475094271857832,-0.24039274062143795,0.0,0.0
1.7434869739478958,-0.010418842848598116,0.09293962509116435,-0.014995594652659872,-0.004146543214057417,-0.21938725847819937,0.0,0.0
1.7635270541082164,-0.008641361994035698,0.08887404272812091,-0.015044763652248277,-0.0024584499794202803,-0.2341848325541795,0.0,0.0
1.783567134268537,-0.006950952991218224,0.0845204501408737,-0.015051825845011161,-0.0003531096381441871,-0.23080287436364133,0.0,0.0
1.8036072144288577,-0.005346294107334149,0.08023294419420372,-0.015018803876301856,0.0016510984354652166,-0.23014908190302202,0.0,0.0
1.8236472945891782,-0.003827139687600595,0.07595772098667769,-0.014945871866822934,0.003646600473946132,-0.2090955921546655,0.0,0.0
1.8436873747494988,-0.002385295157706034,0.07209222649472807,-0.014844883964127245,0.005049395134784493,-0.20987059518208884,0.0,0.0
1.8637274549098195,-0.001021091893233235,0.06821016322363994,-0.014714749923583645,0.006506702027180025,-0.20797609979548826,0.0,0.0
1.8837675350701402,0.0002661720646471347,0.06436319789401848,-0.014555757061298424,0.007949643114261024,-0.2061115271491863,0.0,0.0
1.9038076152304608,0.0014771787245336915,0.060550332994327834,-0.01436799318047592,0.00938819404112519,-0.20214837683144316,0.0,0.0
1.9238476953907815,0.0026134207538555977,0.056812101466095305,-0.014152592095760327,0.010770054235779633,-0.2000158583388908,0.0,0.0
1.9438877755511021,0.003675668547921086,0.05311238970327443,-0.013909442579837845,0.012157475796124122,-0.1941820646321373,0.0,0.0
1.9639278557114228,0.004666128860686758,0.04952301563828363,-0.013640423312196082,0.013450963382088142,-0.18800594903083193,0.0,0.0
1.9839679358717435,0.005587134613165174,0.046050287623920785,-0.013347450069209257,0.014648662149341277,-0.18115427131377085,0.0,0.0
2.004008016032064,0.006441275480602548,0.04270704337186873,-0.013032682730123155,0.01573836695430511,-0.17439979337112604,0.0,0.0
2.024048096192385,0.0072310969644824065,0.03949107419399294,-0.012698086907044237,0.016729791153945902,-0.1279703101392864,0.0,0.0
2.0440881763527052,0.007974620924366547,0.03717619799420704,-0.012368709879479186,0.016468851378252592,-0.14242683490636665,0.0,0.0
2.064128256513026,0.00866611170555449,0.03457453905939714,-0.012034018535186116,0.016734567214653467,-0.14223627689739973,0.0,0.0
2.0841683366733466,0.009305547731242854,0.031971801284418185,-0.011692013603517517,0.01710024658342999,-0.13225464529922937,0.0,0.0
2.1042084168336674,0.009896726020812038,0.029558914478459195,-0.011346376758929558,0.017281842229397933,-0.13780889908464888,0.0,0.0
2.124248496993988,0.010437380107456509,0.027032704332223555,-0.010991679414919683,0.017734867200493755,-0.1287797983565388,0.0,0.0
2.1442885771543083,0.010930931676798443,0.02467757846709672,-0.010630966096531537,0.018035665919407324,-0.12230988373442912,0.0,0.0
2.164328657314629,0.011379802041675621,0.022443518243858852,-0.010265746478363837,0.018260980908385006,-0.1213496149796005,0.0,0.0
2.1843687374749496,0.011784261235052652,0.02022295966885157,-0.009894279047094353,0.018573371563474224,-0.1112133110759701,0.0,0.0
2.2044088176352705,0.012148158200595883,0.0181948482771616,-0.009520150327094355,0.018706435999999892,-0.12206218645605135,0.0,0.0
2.224448897795591,0.012467152214219512,0.015949700681181483,-0.009134654973955086,0.019274767656963423,-0.024902605443728063,0.0,0.0
2.244488977955912,0.012779046743697684,0.01559472647390855,-0.00879219496608077,0.017123000393715754,-0.016362376772863944,0.0,0.0
2.2645290581162323,0.013087076257393237,0.01540147568477766,-0.008495606429279753,0.014829426840050888,-0.038582435782817295,0.0,0.0
2.284569138276553,0.01338248496710705,0.014770435485690712,-0.008230021557291127,0.013279243599431279,-0.050721140529961246,0.0,0.0
2.3046092184368736,0.013660459945885115,0.013898748938903208,-0.007986665062252287,0.012167824751942028,-0.06622913639477704,0.0,0.0
2.3246492985971945,0.013914879852438835,0.012720995327685987,-0.007754930913094665,0.01158670745788111,-0.08719013013073411,0.0,0.0
2.344689378757515,0.014137498777985582,0.01113094627733742,-0.007521096576119482,0.011691716848759184,-0.09075137806901738,0.0,0.0
2.3647294589178354,0.014326860010964039,0.00946806164892286,-0.0072816042784065345,0.011974614885647376,-0.0835133838166834,0.0,0.0
2.3847695390781563,0.014485719345958062,0.007942966749701134,-0.007039177635421849,0.01212133214923429,-0.08616019667426329,0.0,0.0
2.4048096192384767,0.014612974442715044,0.006362754837849102,-0.006790739589378234,0.012421902302180727,-0.07768838626967559,0.0,0.0
2.4248496993987976,0.014711859998656516,0.004944277797073595,-0.006539679094216194,0.012553024758101989,-0.047229383520748014,0.0,0.0
2.444889779559118,0.014794189910272709,0.004116495580809666,-0.006302230195331292,0.011872444944245152,-0.05158955475008927,0.0,0.0
2.464929859719439,0.014858194673281271,0.0032002381504280812,-0.0060743450103347375,0.011394259249827728,-0.055168053358542926,0.0,0.0
2.4849699398797593,0.014902412551026104,0.002210893887241628,-0.005852493203161793,0.011092590358647203,-0.05717930345127958,0.0,0.0
2.50501002004008,0.014925995114509509,0.001179128174170232,-0.005634099257113953,0.010919697302392046,-0.05793846722515963,0.0,0.0
2.5250501002004007,0.014928583520569715,0.00012942030301031052,-0.0054173418802539244,0.010837868843001397,-0.057705321944737376,0.0,0.0
2.5450901803607215,0.014910206618633823,-0.0009188450967945521,-0.005200990563521933,0.010817565836599565,-0.05669552467134928,0.0,0.0
2.565130260521042,0.014871196443484714,-0.0019505087574554396,-0.00498427167194476,0.010835944578858675,-0.05506455129211096,0.0,0.0
2.5851703406813624,0.014812127323100676,-0.002953456019201892,-0.004766772619941013,0.010874952600187329,-0.05666252916137703,0.0,0.0
2.6052104208416833,0.014732313342995707,-0.003990699005248491,-0.004546187077797362,0.011029277107182576,-0.05382682179298918,0.0,0.0
2.6252505010020037,0.014632797840383883,-0.004975775130591179,-0.00432278280692593,0.01117021354357156,-0.03528518630475237,0.0,0.0
2.6452905811623246,0.014520752198973462,-0.005602282070521044,-0.004105997250510543,0.010839277820769369,-0.035454957552014256,0.0,0.0
2.665330661322645,0.01439604803263729,-0.006235208316808623,-0.003894364042541757,0.010581660398439292,-0.03508437662903072,0.0,0.0
2.685370741482966,0.014258769290987428,-0.006863937082493125,-0.003686765395720948,0.010379932341040456,-0.03414935196818347,0.0,0.0
2.7054108216432864,0.014109221340282424,-0.007477397535250212,-0.0034824391465609677,0.010216312457999026,-0.032772889336860234,0.0,0.0
2.7254509018036073,0.013947882745082468,-0.008066929759997772,-0.003280901995507966,0.01007685755265009,-0.031055909649791536,0.0,0.0
2.7454909819639277,0.013775365747868884,-0.008625849860679186,-0.0030818874241912773,0.009950728565834442,-0.02908061094156495,0.0,0.0
2.7655310621242486,0.013592384116917997,-0.009149081547544364,-0.002885295931757163,0.009829574621705707,-0.026914776292347068,0.0,0.0
2.785571142284569,0.013399726667111223,-0.009632872490338678,-0.002691154756543066,0.00970705876070487,-0.024786236880287537,0.0,0.0
2.8056112224448895,0.013198168362148238,-0.010077915248149275,-0.002499484773314817,0.009583499161412445,-0.02236548100914882,0.0,0.0
2.8256513026052104,0.012988598904517819,-0.010478472881520998,-0.002310493379667771,0.009449569682352287,0.011124019669416535,0.0,0.0
2.845691382765531,0.012784032593924662,-0.010228315529657837,-0.002142579202269794,0.008395708869898839,-0.001624138188202411,0.0,0.0
2.8657314629258517,0.01257944663995297,-0.010229297698584616,-0.0019872260652916266,0.007767656848908375,-0.004133820282072523,0.0,0.0
2.885771543086172,0.01237381717055058,-0.01028147347011951,-0.0018419862190245818,0.007261992313352243,-0.005951193198764241,0.0,0.0
2.905811623246493,0.012166393369208136,-0.010371190067122225,-0.001704880668321896,0.0068552775351342875,-0.007145862306060067,0.0,0.0
2.9258517034068134,0.011956669745995152,-0.0104861811606492,-0.0015743459765135241,0.006526734590418602,-0.007825495059331805,0.0,0.0
2.9458917835671343,0.01174434367485961,-0.010616303556777092,-0.0014491614243396186,0.006259227608695275,-0.008080555901679791,0.0,0.0
2.9659318637274548,0.011529279742199607,-0.010753196633000152,-0.001328388393183303,0.006038651557815775,-0.007988147804384697,0.0,0.0
2.9859719438877756,0.011311479390271743,-0.010890017596393207,-0.001211319343213205,0.005853452498504894,-0.0075940491284748925,0.0,0.0
3.006012024048096,0.011091062850501274,-0.011020826988523441,-0.0010974465726798692,0.005693638526666793,-0.006939760306353386,0.0,0.0
3.0260521042084165,0.010868252803424648,-0.011140502353831322,-0.0009864347398153292,0.005550591643226996,0.005518110858707581,0.0,0.0
