time,x,x_dot,theta,theta_dot,u,x_ref,theta_ref
0.0,-1.8104340581461158,0.0036444355079173485,-0.05005657465148233,-0.0542642953372144,-9.99999999999991,0.0,0.0
0.02004008016032064,-1.8142483972621137,-0.1907169557998912,-0.045615985778976416,0.22202944362529592,-9.999999999941897,0.0,0.0
0.04008016032064128,-1.8219513925579762,-0.3851497647931225,-0.03562008133231178,0.49979522233323165,-9.760588586474203,0.0,0.0
0.06012024048096192,-1.8334528438712592,-0.5750725656641444,-0.020142934627098055,0.7738573352606863,-9.999999999980162,0.0,0.0
0.08016032064128256,-1.84885090346762,-0.7699029798180326,0.0010559302714792315,1.0599432449288644,-1.7919198911435057,0.0,0.0
0.1002004008016032,-1.8649484963819285,-0.8048796457154291,0.023309644150229528,1.1126856939375147,9.632628755817905,0.0,0.0
0.12024048096192384,-1.8772934514803459,-0.6172477549208649,0.04007640809309986,0.8383381971435167,-8.472035449173497,0.0,0.0
0.1402805611222445,-1.8929549520402722,-0.7830750279963173,0.06204632992005267,1.0984960913476405,-0.4431432380890712,0.0,0.0
0.16032064128256512,-1.9088056047386361,-0.792532634918199,0.08466362775848663,1.1308648919216981,6.0752854468770146,0.0,0.0
0.18036072144288576,-1.922308792042189,-0.6751593651776494,0.10427144836072143,0.9803910301117402,-3.7995857286486263,0.0,0.0
0.2004008016032064,-1.9373212011906202,-0.7506204574215609,0.12674102317904273,1.1234787409160654,3.6381702787049317,0.0,0.0
0.22044088176352705,-1.950948347801362,-0.6813573305370862,0.14789343764860566,1.0576207234781458,-0.319471611506843,0.0,0.0
0.24048096192384769,-1.9647384621442632,-0.6895057171450559,0.17015338977435643,1.1129976062875389,9.999999999999925,0.0,0.0
0.2605210420841683,-1.9746781325027718,-0.49698351792543366,0.18771969810368222,0.8783154164662891,0.44937559814566086,0.0,0.0
0.280561122244489,-1.9844925071425064,-0.49071873198673066,0.2061981150583517,0.9239208477334739,9.999999479639857,0.0,0.0
0.3006012024048096,-1.9904704135155535,-0.298895318652362,0.22025037280505064,0.7026128873349465,1.2795358937318326,0.0,0.0
0.32064128256513025,-1.9960095485904388,-0.2769567537442613,0.23494459846873064,0.7347112831840004,9.999999999999993,0.0,0.0
0.3406813627254509,-1.9977240193390824,-0.08572353743218242,0.2454308686900688,0.5243135110669078,-0.06590949717150174,0.0,0.0
0.3607214428857715,-1.999530069449096,-0.09030250550068819,0.25747810468186255,0.602361799589687,9.791614589281624,0.0,0.0
0.3807615230460922,-1.9976016640780194,0.0964202685538312,0.2656080624275375,0.4064978872837465,1.352643956621277,0.0,0.0
0.4008016032064128,-1.9952194644751182,0.1191099801450586,0.2746241215815013,0.4508029576981916,7.773145933647343,0.0,0.0
0.42084168336673344,-1.989893554007978,0.2662955233570046,0.28098630550944104,0.31810919639698637,8.33277835544047,0.0,0.0
0.4408817635270541,-1.981409554355728,0.42419998261251,0.2844295030853718,0.17215987879653727,3.6619787384290383,0.0,0.0
0.4609218436873747,-1.9715813340768136,0.4914110139457213,0.28758754663567143,0.15790217751498292,3.70656549351546,0.0,0.0
0.48096192384769537,-1.960392543871522,0.5594395102645782,0.29045653326185844,0.1434493313093511,1.1045002657392509,0.0,0.0
0.501002004008016,-1.9488533865650315,0.5769578653245218,0.2945052167786097,0.2024341758375628,4.611096932664987,0.0,0.0
0.5210420841683366,-1.9356047775458833,0.6624304509574096,0.29780735419141857,0.16510687064044524,5.620303495386612,0.0,0.0
0.5410821643286573,-1.920256446835602,0.7674165355140611,0.29982468760633263,0.10086667074570355,5.900341635130726,0.0,0.0
0.561122244488978,-1.9027005538630453,0.8777946486278386,0.3004159676186214,0.029564000614437078,5.380400475884091,0.0,0.0
0.5811623246492986,-1.883138948119709,0.978080287166813,0.299874125332288,-0.027092114316667297,5.811103018482511,0.0,0.0
0.6012024048096192,-1.8614044527157136,1.0867247701997658,0.2979562124186237,-0.09589564568321718,5.786121055830491,0.0,0.0
0.6212424849699398,-1.8375060850830824,1.194918381631559,0.29466254074545445,-0.1646835836584633,6.430728457315079,0.0,0.0
0.6412825651302605,-1.8111926764435313,1.31567043197756,0.2896111894625423,-0.25256756414560844,6.473700456439593,0.0,0.0
0.6613226452905812,-1.7824456671728364,1.4373504635347505,0.2827418027234679,-0.3434693369537192,5.893286090870387,0.0,0.0
0.6813627254509018,-1.7514876790556844,1.5478994058576003,0.27432905465568236,-0.4206374033892776,5.49908223891499,0.0,0.0
0.7014028056112224,-1.7184686770496624,1.650950100301097,0.26453414901336164,-0.48974528211603713,5.24046978301886,0.0,0.0
0.721442885771543,-1.683485638186503,1.7491519431579705,0.253433866970821,-0.5550141021270325,4.996734490977904,0.0,0.0
0.7414829659318637,-1.6466294196913895,1.842810924755683,0.2410886357027566,-0.6172615634032198,4.407216765946974,0.0,0.0
0.7615230460921844,-1.6081249440919017,1.9252237799743903,0.22774705460382672,-0.6670790549464943,4.0050347162750715,0.0,0.0
0.781563126252505,-1.568124263145384,2.0000340473258817,0.2135472613890456,-0.7099896607390564,3.4058400362462082,0.0,0.0
0.8016032064128256,-1.526855979785755,2.0634141679814437,0.19873577279925975,-0.7405744294892916,2.9355451784286415,0.0,0.0
0.8216432865731462,-1.48449863840279,2.117867069148253,0.18348401556076652,-0.7625878619246613,3.1680187894673506,0.0,0.0
0.8416833667334669,-1.4409572862274265,2.1770676087681844,0.16755931745819305,-0.7962349051286731,2.4382091119740883,0.0,0.0
0.8617234468937875,-1.3965113927274793,2.2222946749973587,0.15127767787272625,-0.8140819792733404,2.333938116862297,0.0,0.0
0.8817635270541082,-1.3511969326985107,2.265723001448432,0.13459444278473998,-0.8341617543993138,0.8207632118829995,0.0,0.0
0.9018036072144289,-1.3055988565941568,2.2799038052176988,0.11827842966099927,-0.8158006561870353,3.43710307378014,0.0,0.0
0.9218436873747494,-1.258692920281138,2.34529681565093,0.10070897285442446,-0.8784728403287407,0.8919293392083176,0.0,0.0
0.9418837675350701,-1.2114663251951565,2.361329754299084,0.08325206292413087,-0.8728454965146788,2.5112649342939033,0.0,0.0
0.9619238476953907,-1.1632827698474661,2.4091777673845183,0.06485422911139131,-0.919891690636978,-0.5625382680092375,0.0,0.0
0.9819639278557114,-1.115336126350967,2.3973321748249568,0.04719163206084471,-0.8831298525273301,0.5415044497144015,0.0,0.0
1.002004008016032,-1.0671909949361373,2.4072565707414797,0.029509030917564006,-0.8841300571640351,1.8685902067960027,0.0,0.0
1.0220440881763526,-1.0183247402883637,2.443312732388675,0.01091927074227765,-0.9294880087643177,-0.3584323094821391,0.0,0.0
1.0420841683366733,-0.969601299584862,2.4361720351750904,-0.007392251150131153,-0.9155760946204402,0.15187814592623317,0.0,0.0
1.062124248496994,-0.9208165944049045,2.4392352589978734,-0.025839048739949237,-0.9223398794909041,-0.9237519580980026,0.0,0.0
1.0821643286573146,-0.8723853697757369,2.4215612314583788,-0.043907955378833644,-0.9034453319442203,-2.4322247900573952,0.0,0.0
1.1022044088176353,-0.8248912601917756,2.374705479198066,-0.06083135600567635,-0.8461700313421352,-1.390987386821361,0.0,0.0
1.122244488977956,-0.7779232637297927,2.348399823099146,-0.07732478318832037,-0.8246713591322007,-1.805611458558656,0.0,0.0
1.1422845691382766,-0.7316385149255284,2.3142374402132124,-0.09325097257051175,-0.796309469109569,-2.8083775135287112,0.0,0.0
1.1623246492985972,-0.6864235675350052,2.260747369526159,-0.10812760918279749,-0.743831830614287,-2.4499372435115547,0.0,0.0
1.1823647294589177,-0.642134273886973,2.2144646824016143,-0.12225889205545952,-0.7065641436331015,-3.4449828958766986,0.0,0.0
1.2024048096192383,-0.5991543705253445,2.1489951680814223,-0.1351586125143407,-0.6449860229440587,-3.8538075215246237,0.0,0.0
1.222444889779559,-0.5576392010052218,2.0757584760061336,-0.1466744499350103,-0.5757918710334811,-4.133012737083284,0.0,0.0
1.2424849699398797,-0.5176938923736678,1.9972654315776974,-0.15672105542602477,-0.5023302745507225,-3.717882558220376,0.0,0.0
1.2625250501002003,-0.4791534742258093,1.9270209073929254,-0.16560463092962083,-0.4441787751798031,-4.3821563536496075,0.0,0.0
1.282565130260521,-0.44227381693543044,1.8439828645189413,-0.17300138652811517,-0.36983777992471767,-3.242109896955024,0.0,0.0
1.3026052104208417,-0.4066085385225988,1.7832639206415826,-0.17961643520911633,-0.3307524340500584,-3.450434495265667,0.0,0.0
1.3226452905811623,-0.3722366878228168,1.7185925349890994,-0.18537356584622772,-0.2878565318555696,-4.1137289685205864,0.0,0.0
1.342685370741483,-0.339414643581412,1.6411022120702425,-0.18993032982005173,-0.2278381986912003,-2.80122950164158,0.0,0.0
1.3627254509018036,-0.3076300582890794,1.5892292646166302,-0.19406923886948657,-0.20694545247174218,-3.053553465819211,0.0,0.0
1.3827655310621243,-0.2769798840106789,1.532508713920024,-0.1976727870143194,-0.18017740724164108,-2.802125315571584,0.0,0.0
1.4028056112224447,-0.24736518041787064,1.4807351796404136,-0.20090836709738422,-0.16177900415324037,-3.3652199288692395,0.0,0.0
1.4228456913827654,-0.21900407421838183,1.4180553099744402,-0.20347520180335193,-0.12834173529838605,-3.3581316807157386,0.0,0.0
1.442885771543086,-0.1918930040806328,1.3555535068874507,-0.20539426461460844,-0.0959531405628254,-3.142611851637282,0.0,0.0
1.4629258517034067,-0.16594752263181792,1.297274072440745,-0.20680125885247866,-0.07034971189351132,-3.229686312813804,0.0,0.0
1.4829659318637274,-0.14120107113166935,1.2373225750074284,-0.20765571818458467,-0.042722966605300706,-3.1172423384721,0.0,0.0
1.503006012024048,-0.11760964095322324,1.1795715089223053,-0.20802742669265353,-0.018585425403442563,-2.9936816138974582,0.0,0.0
1.5230460921843687,-0.09512504966166674,1.1242295645778253,-0.20798932573163242,0.001905048051055909,-2.963959357713358,0.0,0.0
1.5430861723446894,-0.07373574473550434,1.0694652463081198,-0.20755812790209172,0.021559891477035985,-2.9453877289804793,0.0,0.0
1.56312625250501,-0.0534346299498646,1.015055739281987,-0.20674161716901476,0.04082553665384818,-2.852955582367607,0.0,0.0
1.5831663326653307,-0.03418599111252202,0.9624319418671292,-0.20558722181994923,0.0577197674532767,-2.545232675301556,0.0,0.0
1.6032064128256511,-0.015870455840722105,0.9157767635899957,-0.2042631074101489,0.0662057204900173,-2.5675194798133663,0.0,0.0
1.6232464929859718,0.0015029180413102215,0.8686686941016163,-0.20274798294862986,0.07575622307595115,-2.78569155568949,0.0,0.0
1.6432865731462925,0.017848801754735296,0.8172941856712537,-0.20090740314796765,0.09202899003311071,-2.621647834360382,0.0,0.0
1.6633266533066131,0.03323047524392993,0.7690836744597314,-0.1988231559911787,0.10421235783944706,-2.5650434539024496,0.0,0.0
1.6833667334669338,0.047669349546010056,0.7219437151040066,-0.19651410364555885,0.11545261728099249,-2.4890597426152925,0.0,0.0
1.7034068136272544,0.06119431391394599,0.6762482183967965,-0.19400877400043856,0.12526648225601503,-2.4270759253136545,0.0,0.0
1.723446893787575,0.0738287564498169,0.6317221267935454,-0.1913264612223865,0.13411563890260228,-2.32998788113643,0.0,0.0
1.7434869739478958,0.08560967976586918,0.589046165802614,-0.18850546627712483,0.14104974726308386,-2.3562561472149297,0.0,0.0
1.7635270541082164,0.09652603940881875,0.5458179821474786,-0.1855125657214989,0.14964502778129626,-2.3336440877827425,0.0,0.0
1.783567134268537,0.10658576392369781,0.5029862257439531,-0.1823414392261141,0.15855632476924045,-2.214859719701494,0.0,0.0
1.8036072144288577,0.11583416917298027,0.4624202624641227,-0.17903982691589126,0.16508061551114173,-2.2145764618644987,0.0,0.0
1.8236472945891782,0.1242704074247652,0.42181191258924633,-0.17558667119453414,0.17265778606785664,-2.2638542862280397,0.0,0.0
1.8436873747494988,0.13187428790396646,0.3801940239600633,-0.1719314549321744,0.18276081311798734,-2.2857083361149257,0.0,0.0
1.8637274549098195,0.13863623234719893,0.338097222161624,-0.16803808710691936,0.1946683912627526,-2.240417946203756,0.0,0.0
1.8837675350701402,0.144572736307031,0.29682519799160345,-0.1639075670816621,0.20652600126286405,-2.1511160742042885,0.0,0.0
1.9038076152304608,0.14971736964027885,0.25723166666239333,-0.15956476058679828,0.2171403247431904,-2.079587486430153,0.0,0.0
1.9238476953907815,0.15409672502667723,0.21896776931991932,-0.15502300848571016,0.2270876050544065,-1.9486070689262838,0.0,0.0
1.9438877755511021,0.15776050203477707,0.1831888504049911,-0.1503287446355749,0.2347131925067618,-1.8273797468681003,0.0,0.0
1.9639278557114228,0.16075456873521687,0.14970333502199018,-0.14552192274911435,0.24034109432302853,-1.566709097993495,0.0,0.0
1.9839679358717435,0.16317910254917364,0.12122669069783898,-0.14072247863178802,0.23997220586631687,-1.7452698749810718,0.0,0.0
2.004008016032064,0.1649631561500446,0.0892026800435476,-0.1357966099163885,0.24629343576997623,-1.53184472675345,0.0,0.0
2.024048096192385,0.16618848012436838,0.06126619871618908,-0.13083641610335753,0.2480096906515485,-1.7556701982074756,0.0,0.0
2.0440881763527052,0.1667664210103053,0.02889704429684737,-0.12568069464046547,0.2577860731446036,-1.6045066617692574,0.0,0.0
2.064128256513026,0.16675440344565648,-0.0006008782324419468,-0.12038416190891883,0.26482663657733174,-1.441955719765957,0.0,0.0
2.0841683366733466,0.16621426392478714,-0.027006976043467138,-0.11500738011880163,0.2688390895058604,-1.4872221887595707,0.0,0.0
2.1042084168336674,0.16512681218028796,-0.05437258722495935,-0.10948989493724152,0.27587425907800484,-1.3826469173452796,0.0,0.0
2.124248496993988,0.16353123058342078,-0.07977907984335912,-0.10385736596239598,0.28162644874227766,-1.2738893227005452,0.0,0.0
2.1442885771543083,0.1614683067686359,-0.1031461907392431,-0.09813723976672942,0.2860063097833279,-1.1672625548690176,0.0,0.0
2.164328657314629,0.1589779798265126,-0.12451634710616537,-0.09235525344610225,0.28909931603135824,-1.0472491350822837,0.0,0.0
2.1843687374749496,0.15610539847144028,-0.14362906775361567,-0.08654462422827448,0.2905314608913884,-0.8943233833231077,0.0,0.0
2.2044088176352705,0.1529085468273031,-0.15984258220685937,-0.08075764261779386,0.28934908052403135,-0.73399208282967,0.0,0.0
2.224448897795591,0.14944831350663634,-0.17301166603333798,-0.07505116472466113,0.285323894656637,-0.42212071306842364,0.0,0.0
2.244488977955912,0.1458447292618881,-0.1801792122374123,-0.06957101097676503,0.27400768739480474,-0.3947024266115965,0.0,0.0
2.2645290581162323,0.14210694476957283,-0.18688922461576352,-0.06429866156949682,0.26361747036341054,-0.3773112549605217,0.0,0.0
2.284569138276553,0.13824025500160556,-0.19333448839836417,-0.059211054018332945,0.25438037755819365,-0.33509199575288334,0.0,0.0
2.3046092184368736,0.13425969048516673,-0.199028225821942,-0.05430078044671618,0.2455136785808384,-0.31991195168595776,0.0,0.0
2.3246492985971945,0.13016978174278943,-0.2044954371188656,-0.04954576695089841,0.23775067479088852,-0.271146412945144,0.0,0.0
2.344689378757515,0.12598820484245124,-0.20907884501690877,-0.044944533772672296,0.23006165891130553,-0.21141293960889312,0.0,0.0
2.3647294589178354,0.12173695841202947,-0.21256232152108842,-0.04050298692239877,0.22207734251367628,-0.18214779038193296,0.0,0.0
2.3847695390781563,0.11742619829900011,-0.21553800565146775,-0.03621024221317102,0.21463723546138777,-0.13276263763543508,0.0,0.0
2.4048096192384767,0.11307397230193825,-0.2176112998530935,-0.03206811501309838,0.20710636000363195,-0.08782237157000156,0.0,0.0
2.4248496993987976,0.10869663638868132,-0.21886679566284653,-0.028076776260691733,0.19956693762033226,0.10729477202381998,0.0,0.0
2.444889779559118,0.10436918861706201,-0.21637238858096522,-0.02432516015556314,0.18758080525642956,0.12810140767071668,0.0,0.0
2.464929859719439,0.10009867993356909,-0.21352543417464614,-0.020801802590044927,0.17616787827591074,0.13961342621002532,0.0,0.0
2.4849699398797593,0.09588859838801549,-0.21050407727768022,-0.017491238903365756,0.16552818433395847,0.1475211675645966,0.0,0.0
2.50501002004008,0.09174108531158214,-0.20737565382166726,-0.014377233955240811,0.15570024740624724,0.1639334689450841,0.0,0.0
2.5250501002004007,0.08766165599839297,-0.2039714656594584,-0.011449762736929162,0.14637356091558246,0.18712652040843858,0.0,0.0
2.5450901803607215,0.08365852445276259,-0.2001565772815187,-0.008703940271649953,0.1372911232639605,0.19934231780983605,0.0,0.0
2.565130260521042,0.07973567257572443,-0.19614259385190808,-0.006129604091544168,0.12871680900528923,0.21997753934994985,0.0,0.0
2.5851703406813624,0.07590041637416389,-0.19176281007802687,-0.0037225962224695414,0.12035039345373134,0.24047466032682596,0.0,0.0
2.6052104208416833,0.07216006552953465,-0.1870175422314625,-0.0014797316281003935,0.1121432297184574,0.2635338937264502,0.0,0.0
2.6252505010020037,0.06852297624561694,-0.18185446419588505,0.0005996421577353071,0.10396868929178503,0.6137156396505978,0.0,0.0
2.6452905811623246,0.06512520304313899,-0.16988866012389806,0.0023237897979668724,0.08620738201157827,0.5763538048709738,0.0,0.0
2.665330661322645,0.06195167228628975,-0.15867653784246172,0.0037254401104810583,0.07008251562570929,0.46834127899651834,0.0,0.0
2.685370741482966,0.05895983283865257,-0.1495919723818589,0.0048766174332294954,0.057558866137421845,0.18563660534665827,0.0,0.0
2.7054108216432864,0.05603903602837988,-0.14603984051363417,0.005949955113679222,0.053666884022486316,0.26394268211681704,0.0,0.0
2.7254509018036073,0.05321953116814336,-0.1409752430118262,0.006906416136070174,0.047823051119547565,0.24580534209249844,0.0,0.0
2.7454909819639277,0.05049396636902751,-0.13627823995579244,0.007762642478091016,0.04281131710104209,0.23461773762487986,0.0,0.0
2.7655310621242486,0.04785773043986101,-0.13181179645832494,0.008530578613034457,0.038396806747172024,0.2315143802058384,0.0,0.0
2.785571142284569,0.04530939217368449,-0.1274169133088261,0.009216883264312296,0.03431523256389195,0.2320264335146298,0.0,0.0
2.8056112224448895,0.042848954585800056,-0.12302187939422156,0.00982558550632609,0.030435112100689676,0.22908983058610832,0.0,0.0
2.8256513026052104,0.04047509719289041,-0.11869286964548255,0.01036224226640124,0.02683283800375748,0.20779197155355855,0.0,0.0
2.845691382765531,0.0381793551866989,-0.1147871003095753,0.010842696257993936,0.024022699579634765,0.2142118464436016,0.0,0.0
2.8657314629258517,0.03596409598280653,-0.11076296019461827,0.011266222527095991,0.021176313455102767,0.21185564509159216,0.0,0.0
2.885771543086172,0.03382827869244039,-0.1067908645183068,0.011636870524358954,0.01853239986314819,0.21004533694470495,0.0,0.0
2.905811623246493,0.03177109061074759,-0.10285940408463987,0.011958036874718338,0.016058317517969205,0.20838754965657016,0.0,0.0
2.9258517034068134,0.029791792739722794,-0.09896489355124,0.01223271689744206,0.01373400113618604,0.20665106018158863,0.0,0.0
2.9458917835671343,0.027889628700771843,-0.09510820194754757,0.012463658746483057,0.011547092452049835,0.20473886966246385,0.0,0.0
2.9659318637274548,0.026063786095480306,-0.09129213026457687,0.012653437479882727,0.009488936669983513,0.20259996275122108,0.0,0.0
2.9859719438877756,0.02431337585977809,-0.08752051178511079,0.012804501140757008,0.007553183043714004,0.19142393091198895,0.0,0.0
3.006012024048096,0.02263399355191515,-0.08396911539314696,0.012924339568921347,0.005991921408216959,0.19074777446818547,0.0,0.0
3.0260521042084165,0.021025340961692108,-0.0804326295111522,0.013014104078641014,0.004488225485983356,0.30296421136903895,0.0,0.0
3.0460921843687374,0.01953118158892373,-0.07470796863841885,0.013008723543073473,-0.0002690267783770125,0.23713928665560313,0.0,0.0
3.066132264529058,0.018125830687693637,-0.07026754506150476,0.01294666613172712,-0.0031028705673176375,0.20522428147528107,0.0,0.0
3.0861723446893787,0.016796852138268897,-0.06644892747123692,0.012846208064082569,-0.005022903382227544,0.17972822854361045,0.0,0.0
3.106212424849699,0.015534325639650726,-0.06312632493090856,0.01272162884641076,-0.006228960883590496,0.15787524442249504,0.0,0.0
3.12625250501002,0.014329759404386503,-0.06022831176321115,0.012584925006655947,-0.0068351919877406055,0.15657432654535172,0.0,0.0
