time,x,x_dot,theta,theta_dot,u,x_ref,theta_ref
0.0,1.4809968158803386,-0.04263655818248893,0.041259260020624744,0.05550681658403575,9.999999999992879,0.0,0.0
0.02004008016032064,1.4840340509245602,0.15186175221107448,0.03678543842700249,-0.22369107968111265,9.99999999999994,0.0,0.0
0.04008016032064128,1.490962663131945,0.3464306103692371,0.02669825785926376,-0.5043590283869366,9.999999999999874,0.0,0.0
0.06012024048096192,1.5017858165007971,0.5411576684426037,0.010931864053840508,-0.7883196902711627,9.999999999999996,0.0,0.0
0.08016032064128256,1.516508195798449,0.7361189648825908,-0.010615128209221895,-1.0773496131531202,5.649453564540284,0.0,0.0
0.1002004008016032,1.5334379230295876,0.8464863615569337,-0.03553326464629261,-1.245906821853536,1.2317149240818663,0.0,0.0
0.12024048096192384,1.5508573529451364,0.870971495777444,-0.06139379406589421,-1.29302647098008,-0.9120589373822559,0.0,0.0
0.1402805611222445,1.5679365194107944,0.8539583232828999,-0.0871057515308494,-1.2855978732477598,-1.1840620220425722,0.0,0.0
0.16032064128256512,1.5845759136154292,0.8319697102317356,-0.11267217690548001,-1.2783212687315304,-0.12431545297451985,0.0,0.0
0.18036072144288576,1.6011952538137342,0.8309670099152471,-0.13886942926308027,-1.3098626178800132,-6.790599203085822,0.0,0.0
0.2004008016032064,1.6152030456242361,0.7003895905251004,-0.16200291573768721,-1.1566743237303476,-0.41628079983404387,0.0,0.0
0.22044088176352705,1.6290900409591627,0.6943497667463224,-0.18590551521667797,-1.1951299739495376,-6.961411629319005,0.0,0.0
0.24048096192384769,1.6403140814536643,0.5612020247250845,-0.2069711212423883,-1.0532803012855172,-2.9863374715364883,0.0,0.0
0.2605210420841683,1.6504293964656103,0.5057657505972958,-0.2276177149164198,-1.032329683701575,-0.9608866688486688,0.0,0.0
0.280561122244489,1.660229244308015,0.48999239212024204,-0.24912963748407357,-1.0755961283826883,-6.152975254422856,0.0,0.0
0.3006012024048096,1.6677013142566182,0.373603497430156,-0.26870867424418104,-0.978951838005373,-7.463819160138048,0.0,0.0
0.32064128256513025,1.6723437939382222,0.23212398408019871,-0.28575827989774166,-0.8524802826780312,-6.99911467610222,0.0,0.0
0.3406813627254509,1.6743439144531578,0.10000602574678222,-0.3006638996672098,-0.7452809884734064,-7.395842907313486,0.0,0.0
0.3607214428857715,1.6735537503958424,-0.039508202865771974,-0.31331464758307864,-0.6325373957934423,-7.614189104747826,0.0,0.0
0.3807615230460922,1.6698939032126507,-0.18299235915958198,-0.3236841489946646,-0.5184750705792969,-7.922083175520455,0.0,0.0
0.4008016032064128,1.6632494957425559,-0.3322203735047487,-0.33168097678364317,-0.3998413894489308,-8.139061771715307,0.0,0.0
0.42084168336673344,1.6535400148896515,-0.4854740426452206,-0.33724702163427905,-0.2783022425317938,-9.999999999999762,0.0,0.0
0.4408817635270541,1.6400475624519288,-0.6746226218861362,-0.3394060212158394,-0.10794997907801698,-9.999999990694285,0.0,0.0
0.4609218436873747,1.6227734089459451,-0.8637076752991841,-0.3381758029658184,0.061510912501051174,-9.16592189504317,0.0,0.0
0.48096192384769537,1.6020400014019902,-1.0366703771977468,-0.3340032219679302,0.20862904989441086,-7.704922599262739,0.0,0.0
0.501002004008016,1.5784111819325444,-1.181440973472292,-0.32765651976022003,0.3173351103855087,-6.733993522633204,0.0,0.0
0.5210420841683366,1.5522603893872973,-1.307539627262356,-0.31962150150717583,0.40175091265220925,-4.265527643509314,0.0,0.0
0.5410821643286573,1.5245409137387786,-1.3859737824259335,-0.31120040886349587,0.4210546321839988,-2.1527186335797426,0.0,0.0
0.561122244488978,1.4960690431764707,-1.423593528115402,-0.3035049458027622,0.38477315303668236,-6.09862999913447,0.0,0.0
0.5811623246492986,1.4653131335871774,-1.5377954794646624,-0.2942982939540179,0.4603325924372145,-3.5779176659774095,0.0,0.0
0.6012024048096192,1.433247455833174,-1.6032838877001727,-0.2849171694205736,0.4690562266722165,-7.206908380724936,0.0,0.0
0.6212424849699398,1.3984612834348602,-1.739308619915688,-0.27327397049404095,0.5821599463266324,-9.488662633174716,0.0,0.0
0.6412825651302605,1.3600643226374824,-1.9198480398688926,-0.25800476233825376,0.7634604077893589,-8.390459892331867,0.0,0.0
0.6613226452905812,1.3184761904321045,-2.0794066102688995,-0.23960948074206326,0.9197640798095255,-6.053252897984384,0.0,0.0
0.6813627254509018,1.274597519429467,-2.193933550131882,-0.21927322349674372,1.0168128622659771,-4.252372887725212,0.0,0.0
0.7014028056112224,1.2291214567146096,-2.2738031357428676,-0.19787793238970833,1.0697645553517694,-3.95358393477097,0.0,0.0
0.721442885771543,1.1821576672694327,-2.3481894722588454,-0.17545118719397196,1.121337259786818,-2.9964120226693045,0.0,0.0
0.7414829659318637,1.1340720816983854,-2.4042792785523677,-0.15239434274425684,1.1528422224857564,-3.8546877927444614,0.0,0.0
0.7615230460921844,1.0845238333235603,-2.4774124187412547,-0.12806234282632428,1.216599995896628,-1.5920908937828568,0.0,0.0
0.781563126252505,1.0343876299833292,-2.506810167011554,-0.10360665976369506,1.2227841531314612,-2.9793343853205654,0.0,0.0
0.8016032064128256,0.983116168887054,-2.5635730548137587,-0.0780660175138306,1.2770321124932225,-1.0659216916709062,0.0,0.0
0.8216432865731462,0.9314487377843842,-2.583371555133491,-0.05239187472638327,1.2837071393723667,0.11053100238790381,0.0,0.0
0.8416833667334669,0.8798377336568195,-2.5805502063782364,-0.02710993444447917,1.264097014095205,1.0892855517626034,0.0,0.0
0.8617234468937875,0.8286586957144769,-2.5589518971171303,-0.0026345881184110034,1.2237673163034084,4.027845031096051,0.0,0.0
0.8817635270541082,0.7790521052863003,-2.48032952140883,0.01946808668172494,1.105133740006797,1.5250715392821377,0.0,0.0
0.9018036072144289,0.730035506201666,-2.4508299542317142,0.040800888458627796,1.0666400888451428,3.9819020622626984,0.0,0.0
0.9218436873747494,0.6825617847906648,-2.373686070550065,0.060062436993313206,0.9630774267342704,1.5871787317953703,0.0,0.0
0.9418837675350701,0.6356911745531695,-2.343530511874765,0.07877424848020638,0.9355905743446589,4.151211754125939,0.0,0.0
0.9619238476953907,0.5904186094038272,-2.263628257467113,0.09556034310500977,0.8393047312401697,1.6575072277631535,0.0,0.0
0.9819639278557114,0.5457665204695227,-2.232604446715227,0.11198123798770049,0.8210447441345357,3.9978161023591428,0.0,0.0
1.002004008016032,0.5026427275898202,-2.1561896439851225,0.12678213407083982,0.7400448041569674,2.784523425615269,0.0,0.0
1.0220440881763526,0.46056969878123794,-2.103651440429114,0.14076352998460107,0.6990697956880618,4.69896972191932,0.0,0.0
1.0420841683366733,0.4202892709386036,-2.0140213921317165,0.15290872646706472,0.6072598241231818,3.66644752013849,0.0,0.0
1.062124248496994,0.38139518134110106,-1.9447044798751243,0.16389500687443728,0.5493140203686283,3.6809725020986246,0.0,0.0
1.0821643286573146,0.34388961920935884,-1.8752781065871105,0.17378648530006302,0.4945739212812871,3.7767189637590906,0.0,0.0
1.1022044088176353,0.30780672946323373,-1.8041444873062542,0.18259350591233012,0.44035103061335457,3.8338141356552953,0.0,0.0
1.122244488977956,0.27316592169055587,-1.7320403886338918,0.19034171869209157,0.3874106389880722,3.8663538913546622,0.0,0.0
1.1422845691382766,0.2399773682442809,-1.6594276723137489,0.1970639969272119,0.33611391175601635,3.839050987328901,0.0,0.0
1.1623246492985972,0.20822827449236192,-1.5874546875959488,0.2028207298849747,0.2878366478881403,3.874081215128144,0.0,0.0
1.1823647294589177,0.17793041346493016,-1.5148930513715886,0.20763025246443692,0.24047612897311102,3.8511940715566255,0.0,0.0
1.2024048096192383,0.14907332574935467,-1.442854385778775,0.21153770869025706,0.19537281129100675,3.7772818004145514,0.0,0.0
1.222444889779559,0.12162699877611376,-1.3723163486620458,0.21461130127592853,0.15367962928357357,3.9285366893581704,0.0,0.0
1.2424849699398797,0.09564927281228537,-1.2988862981914193,0.21678534064172322,0.10870196828973475,3.926694749629107,0.0,0.0
1.2625250501002003,0.07113872167414388,-1.2255275569070745,0.218075418398351,0.06450388783138927,3.9054919714540497,0.0,0.0
1.282565130260521,0.04808667545955617,-1.1526023107293855,0.21850223796594123,0.02134097837951078,3.8283703744607083,0.0,0.0
1.3026052104208417,0.02646299710558253,-1.0811839176986822,0.21811255323462905,-0.019484236565608874,3.6946703879744316,0.0,0.0
1.3226452905811623,0.006215809118165803,-1.0123593993708364,0.21697987306263386,-0.05663400859975939,3.5737845026325235,0.0,0.0
1.342685370741483,-0.012701548857675497,-0.945867898792065,0.21516550058790057,-0.09071862373666405,3.4338436071768825,0.0,0.0
1.3627254509018036,-0.03034293890731791,-0.8820695024821208,0.21273712725319638,-0.12141866673520955,3.2076789377558,0.0,0.0
1.3827655310621243,-0.04679557831368105,-0.8226319703181569,0.20980761908986523,-0.14647540816655807,2.9925371254711153,0.0,0.0
1.4028056112224447,-0.06214226168264283,-0.7673341684480889,0.20648044201795931,-0.16635885359529495,2.8057488533954547,0.0,0.0
1.4228456913827654,-0.07645465384786104,-0.7156196082609111,0.20284047472391087,-0.1819983647024228,2.116264877294525,0.0,0.0
1.442885771543086,-0.08999993037828596,-0.6772638265212458,0.19925792883410245,-0.1791272944904208,2.1373745569832505,0.0,0.0
1.4629258517034067,-0.10276886281006908,-0.6384466215891559,0.1956977931577614,-0.1780067838170536,2.2368491317180963,0.0,0.0
1.4829659318637274,-0.11472172743964937,-0.5976432314790145,0.19208032919992932,-0.18087319789160372,2.2154754502647296,0.0,0.0
1.503006012024048,-0.1258658022701147,-0.5572037415232665,0.18839453475699064,-0.18428972214693445,2.2303963685155344,0.0,0.0
1.5230460921843687,-0.13619421825831185,-0.5164207994098577,0.18460818170812937,-0.18931765244306398,2.0586433182045716,0.0,0.0
1.5430861723446894,-0.14577273865876395,-0.47892602002260415,0.180795455775239,-0.19063629664451884,2.085443892100124,0.0,0.0
1.56312625250501,-0.15458983788305192,-0.44085496121439827,0.1769165503491392,-0.193945271304991,2.017748563977342,0.0,0.0
1.5831663326653307,-0.1626707565105719,-0.404045931375999,0.17298549429496118,-0.19655280270890108,1.9089540684776252,0.0,0.0
1.6032064128256511,-0.17005672803575453,-0.3692985762591316,0.16903967405349415,-0.19729101207335095,1.8498406415814022,0.0,0.0
1.6232464929859718,-0.1767696439752628,-0.33564579697541347,0.1650878904088294,-0.19758918223323824,2.0952152215516344,0.0,0.0
1.6432865731462925,-0.18271281244054516,-0.2971584232641178,0.16096360517323174,-0.20621426177988234,1.8244148014758852,0.0,0.0
1.6633266533066131,-0.18799050893039532,-0.26388482449250766,0.1567964265598506,-0.20835893066905697,1.869618193966046,0.0,0.0
1.6833667334669338,-0.19258393011269917,-0.22967105911519325,0.15253367599928727,-0.21313752802816577,1.7412215837403868,0.0,0.0
1.7034068136272544,-0.19654186612864435,-0.19789680079725872,0.14822221990268702,-0.21557280483001176,1.5770657812325863,0.0,0.0
1.723446893787575,-0.19992703590447086,-0.1692584887913256,0.14392938209329711,-0.21464189046949553,1.9161932954491567,0.0,0.0
1.7434869739478958,-0.20260607851036233,-0.13395213029457348,0.13943181930796736,-0.22487813926648775,1.271045281559942,0.0,0.0
1.7635270541082164,-0.20482908341912484,-0.11115024543812575,0.13507395651649323,-0.21789313957370596,1.585256251630084,0.0,0.0
1.783567134268537,-0.20647237195968174,-0.0821644270278453,0.13064630535343066,-0.22138255815312793,1.3450401599676343,0.0,0.0
1.8036072144288577,-0.2076282944061917,-0.05779612232549839,0.12625982619569476,-0.21932395788679562,1.641727184588555,0.0,0.0
1.8236472945891782,-0.20817996189014343,-0.027583374197585928,0.12171471554269284,-0.2272555326500964,1.3237176670067021,0.0,0.0
1.8436873747494988,-0.20825002142170201,-0.003502976577929806,0.11716645616122806,-0.22741296907323913,1.335819249417351,0.0,0.0
1.8637274549098195,-0.2078324564737027,0.0208782473999669,0.1125791628439209,-0.2293646658653579,1.3343508928144645,0.0,0.0
1.8837675350701402,-0.20692652578314819,0.04529653452772529,0.10792456832471979,-0.23272972596005537,1.273777139407532,0.0,0.0
1.9038076152304608,-0.20555451115918766,0.06860073119802702,0.10320831934378898,-0.23581244904654086,1.2687189459548267,0.0,0.0
1.9238476953907815,-0.20371703250049522,0.0918739329346224,0.098403433094828,-0.24024431244804847,1.145603507907507,0.0,0.0
1.9438877755511021,-0.2014607187886452,0.11281568559250221,0.09355104209402244,-0.24261955004027838,1.0659140852856996,0.0,0.0
1.9639278557114228,-0.19881525764464042,0.1322730572002378,0.08866678042000649,-0.24421308370079753,0.9165876540003496,0.0,0.0
1.9839679358717435,-0.1958374897788111,0.14888839329146528,0.0838066794743131,-0.2430050472846696,0.6981616041517428,0.0,0.0
2.004008016032064,-0.1926112217073453,0.16131340357329116,0.07906726766953145,-0.23697059023908193,0.596092113024518,0.0,0.0
2.024048096192385,-0.18917492149311066,0.1718150107117311,0.07447812927141813,-0.22945691990566625,0.7095852756915374,0.0,0.0
2.0440881763527052,-0.18548301898036654,0.18459512563720576,0.06994414247763084,-0.2266993396893647,0.657522010980273,0.0,0.0
2.064128256513026,-0.18155453191096552,0.1964243534700509,0.06546704730280935,-0.22385475874107472,0.573146761652588,0.0,0.0
2.0841683366733466,-0.1774210999149327,0.20667159980164007,0.06106781594460889,-0.2199615679100231,0.48010098010739144,0.0,0.0
2.1042084168336674,-0.17311776947003518,0.21516652224487678,0.05677300231856956,-0.21474068130196647,0.3947489390909775,0.0,0.0
2.124248496993988,-0.16867661739163964,0.2220576039197766,0.05260535579373776,-0.20838232624158987,0.3405292418613223,0.0,0.0
2.1442885771543083,-0.16411761204206168,0.22795026747889824,0.0485702679074632,-0.2017543943137281,0.22359230414159229,0.0,0.0
2.164328657314629,-0.15948522938625503,0.23161913279033247,0.044710615115540704,-0.19298263959612477,0.2713757629065984,0.0,0.0
2.1843687374749496,-0.1547597286024375,0.2362750391908763,0.04097415855571681,-0.18682282799119485,0.20029023926767697,0.0,0.0
2.2044088176352705,-0.14996778117264614,0.2395973714895679,0.03737888808398215,-0.1797635235867332,0.1954519732937322,0.0,0.0
2.224448897795591,-0.14511025061866165,0.24287652769922446,0.03390497247972743,-0.1736957802127357,0.1847215460179978,0.0,0.0
2.244488977955912,-0.14019033316331944,0.24599587276710996,0.030536787268820448,-0.16840926054534913,0.13770342407391725,0.0,0.0
2.2645290581162323,-0.13522541394723106,0.2482459608044188,0.027280589299809824,-0.16280989845053112,0.0557784441128385,0.0,0.0
2.284569138276553,-0.13024653092794827,0.24894415096413922,0.02416375628548044,-0.1558416507164693,-0.006064541029789344,0.0,0.0
2.3046092184368736,-0.12527692613651897,0.24848023957146484,0.021202808182615412,-0.14804740514325132,0.007008533494245909,0.0,0.0
2.3246492985971945,-0.12031065294470758,0.2483136595905696,0.018371438540415494,-0.14156848210999595,-0.022333035684137206,0.0,0.0
2.344689378757515,-0.11535835190673235,0.24761505189876126,0.015668961016882758,-0.13512387617663688,-0.04504974531233563,0.0,0.0
2.3647294589178354,-0.11042811504494446,0.24651184308939447,0.013091627200839461,-0.12886669080216487,-0.07233732276744735,0.0,0.0
2.3847695390781563,-0.10552985356583658,0.24491307395539424,0.010639150881779035,-0.12262381595302126,-0.10095030854203962,0.0,0.0
2.4048096192384767,-0.10067403140043928,0.24279110826986533,0.008312808124029451,-0.11631713788747924,-0.1157702118361201,0.0,0.0
2.4248496993987976,-0.095865766003598,0.2404132698420639,0.006106601718001488,-0.11031032030139815,-0.13660396438146755,0.0,0.0
2.444889779559118,-0.09111255576924357,0.23766051171772193,0.004018809102248146,-0.10438963078766708,-0.18334371540909541,0.0,0.0
2.464929859719439,-0.08643204201872964,0.23402568752569652,0.002063607995894471,-0.09776005531768373,-0.1506868285466917,0.0,0.0
2.4849699398797593,-0.08181092129825603,0.2310560360236807,0.00020956702622676677,-0.0927020484833852,-0.20641284153128206,0.0,0.0
2.50501002004008,-0.07727040828356004,0.2270256507347997,-0.0015224064255231296,-0.08659867258749482,-0.20517605567182878,0.0,0.0
2.5250501002004007,-0.0728095241462039,0.22304420686780707,-0.0031439574600162995,-0.08107755172465848,-0.198118229491817,0.0,0.0
2.5450901803607215,-0.06842505008589815,0.21922370301528737,-0.004669440427340232,-0.07627414836619663,-0.21200026347101827,0.0,0.0
2.565130260521042,-0.0641219660400747,0.21515420229117307,-0.006100355019062202,-0.0715457295860985,-0.24695011217493668,0.0,0.0
2.5851703406813624,-0.05991350017313158,0.21042329334715568,-0.007425281091176691,-0.06624630360572442,-0.24596452219425288,0.0,0.0
2.6052104208416833,-0.05579888804979743,0.20573060616670769,-0.008653151340318424,-0.061393512457086616,-0.24089984600731268,0.0,0.0
2.6252505010020037,-0.051775801271746795,0.20115433890253176,-0.009794672574416238,-0.05707606170489068,-0.1948796195179279,0.0,0.0
2.6452905811623246,-0.047825954374004914,0.19749234488709416,-0.010883963655466187,-0.054464554052497414,-0.16668008920353078,0.0,0.0
2.665330661322645,-0.0439380309851887,0.19439616944081087,-0.011944389458263746,-0.053021290139878025,-0.21623914306286085,0.0,0.0
2.685370741482966,-0.0401310661790345,0.19034824030770975,-0.012953649368345067,-0.05046299550406609,-0.21957282905175798,0.0,0.0
2.7054108216432864,-0.0364060714724778,0.18624973532783512,-0.013916158991761138,-0.04812548117080358,-0.2446531528802615,0.0,0.0
2.7254509018036073,-0.032772557765996524,0.18167568532406386,-0.014823319369051645,-0.04535801886452537,-0.3178885153990884,0.0,0.0
2.7454909819639277,-0.02925884282565307,0.17568574701717266,-0.01563801705449321,-0.040734884272078206,-0.38644311155107336,0.0,0.0
2.7655310621242486,-0.02589144424754951,0.168369928905178,-0.01632529446225738,-0.03436387038820847,-0.3908766668379197,0.0,0.0
2.785571142284569,-0.02267189482702455,0.160977471026248,-0.01688689470184154,-0.0280800119792081,-0.3837436170260857,0.0,0.0
2.8056112224448895,-0.019597249918910077,0.15373224540572375,-0.017330533111366418,-0.022181920476243885,-0.3256897988369554,0.0,0.0
2.8256513026052104,-0.016644728567298886,0.1476260675805595,-0.017692962884158146,-0.018121488639586316,-0.23356295439490976,0.0,0.0
2.845691382765531,-0.013778277312702035,0.1433225627298426,-0.018030352562552577,-0.016869483919721547,-0.1997941680676609,0.0,0.0
2.8657314629258517,-0.01098462227416386,0.13968275192690877,-0.018364580370575593,-0.016711390401150855,-0.20552680676983587,0.0,0.0
2.885771543086172,-0.008265904620548298,0.13593588268077808,-0.018694401472742102,-0.016491055108325447,-0.22433737204624882,0.0,0.0
2.905811623246493,-0.005629369997785532,0.1318267311381383,-0.019010894577141463,-0.01582465521996812,-0.29232465795585993,0.0,0.0
2.9258517034068134,-0.0031014573863367744,0.12639563057243786,-0.019276293367620916,-0.013269939523972691,-0.31692310759425374,0.0,0.0
2.9458917835671343,-0.0006916893590725995,0.12048840136320874,-0.01947788567036821,-0.01007961513736472,-0.3826171505401035,0.0,0.0
2.9659318637274548,0.001574357100917864,0.11330232299952318,-0.019578522338861173,-0.005031833424648148,-0.3233510768802418,0.0,0.0
2.9859719438877756,0.0037198374060089428,0.10727401525455393,-0.019613499829095,-0.0017488745116913387,-0.29929596925182117,0.0,0.0
3.006012024048096,0.005754148260703258,0.10171554273471574,-0.019597107308176685,0.0008196260459158214,-0.27634824824958826,0.0,0.0
3.0260521042084165,0.007686239513233993,0.09660456262653672,-0.01954266222417683,0.0027222541999928716,-0.23424584312879482,0.0,0.0
3.0460921843687374,0.009532524548776141,0.09231425177710742,-0.019474444539482272,0.0034108842347278373,-0.25054719148759697,0.0,0.0
3.066132264529058,0.011286622776058573,0.08770491136412159,-0.019382490194627008,0.004597717242763262,-0.24959226018901481,0.0,0.0
3.0861723446893787,0.01294888045938032,0.08311288416608732,-0.019266777665420495,0.005785626460325594,-0.25380199903576783,0.0,0.0
3.106212424849699,0.014517621717049007,0.07843706288343436,-0.019124115020182922,0.0071331322618786875,-0.24792955260146032,0.0,0.0
3.12625250501002,0.015995097164457166,0.07387377237040794,-0.018957036894605317,0.008353906278880247,-0.25257492335406817,0.0,0.0
