time,x,x_dot,theta,theta_dot,u,x_ref,theta_ref
0.0,0.26766735551746024,-0.01385117090196289,-0.1623704698153902,-0.030384089912800907,-6.678640853103948,0.0,0.0
0.02004008016032064,0.264834760568976,-0.14162974742421378,-0.16014753291593384,0.11114684497281695,-6.1658577757400765,0.0,0.0
0.04008016032064128,0.25964555396064504,-0.2594603304165466,-0.15537415363565465,0.2386689640139591,-5.488531868844377,0.0,0.0
0.06012024048096192,0.252361897371534,-0.3641828294555497,-0.14840824384449225,0.3482954895581206,-4.528999389423738,0.0,0.0
0.08016032064128256,0.2433552292075676,-0.45033340819832063,-0.13975672068525274,0.432576157961975,-3.946134956695939,0.0,0.0
0.1002004008016032,0.23284983417566793,-0.5252697515949841,-0.12969900217136512,0.5028859256943815,-2.746444653530264,0.0,0.0
0.12024048096192384,0.22131009285186623,-0.5769870661900844,-0.11886377536945134,0.5417613400956897,-1.3325378342275516,0.0,0.0
0.1402805611222445,0.20928393234570822,-0.6013080253079011,-0.10800135940756012,0.5431207980945612,-1.2333680215110712,0.0,0.0
0.16032064128256512,0.19680695912776647,-0.6238486608970869,-0.09710050252921562,0.5450428439172244,-1.044742088485333,0.0,0.0
0.18036072144288576,0.18394965774421068,-0.6428650691777886,-0.08620189350550343,0.5449304511856095,-0.8865382041296599,0.0,0.0
0.2004008016032064,0.17077066800836654,-0.6589494867922062,-0.07532876734173792,0.5436563081882754,-0.23768047675616544,0.0,0.0
0.22044088176352705,0.15752003525331346,-0.6625316377526547,-0.06479078631135313,0.5268990515192395,-0.49753793163354665,0.0,0.0
0.24048096192384769,0.1440934729500225,-0.671328115164547,-0.05437009469019863,0.521034581057725,-0.21774053432454515,0.0,0.0
0.2605210420841683,0.13059722359980216,-0.6748124675110164,-0.044164431240477864,0.5102831724860384,0.01124418222148224,0.0,0.0
0.280561122244489,0.11711777802779554,-0.6739722786003312,-0.03424337344593778,0.4960528897270043,0.33876874952500624,0.0,0.0
0.3006012024048096,0.10378016006948931,-0.6668808979153111,-0.024735985496446428,0.4753693974745677,0.9017183198668118,0.0,0.0
0.32064128256513025,0.09080137835921515,-0.6489390855137085,-0.015911693084806174,0.4412146205820128,0.2621055137319668,0.0,0.0
0.3406813627254509,0.07792937475229397,-0.6436001803460588,-0.007340945894547169,0.42853735951295024,0.7023143687989533,0.0,0.0
0.3607214428857715,0.0653335092396321,-0.6297932756330934,0.0007727266124817021,0.40568362535144353,0.4765649099550243,0.0,0.0
0.3807615230460922,0.05292339275914769,-0.6205058240242206,0.008612490479357655,0.39198819334379764,1.4284358834127278,0.0,0.0
0.4008016032064128,0.04106824347021405,-0.592757464446682,0.01567096355694143,0.3529236538791888,1.013449894557174,0.0,0.0
0.42084168336673344,0.0296041086674256,-0.5732067401394225,0.02223543716650917,0.328223680478387,0.3705595182994976,0.0,0.0
0.4408817635270541,0.01827824618594387,-0.5662931240740865,0.028723335021898076,0.32439489276944516,1.0542710500722103,0.0,0.0
0.4609218436873747,0.007355593756612204,-0.5461326214665833,0.034775809404090675,0.30262371910962993,0.9195201186662147,0.0,0.0
0.48096192384769537,-0.003218166664841383,-0.5286880210726793,0.04050990172913401,0.28670461625216664,0.9193568764513701,0.0,0.0
0.501002004008016,-0.013444745690172321,-0.5113289512665469,0.04596195855905337,0.2726028414959679,0.9606430001169209,0.0,0.0
0.5210420841683366,-0.023309601844985067,-0.4932428077406372,0.0511423350611923,0.25901882510694624,1.1007288016655012,0.0,0.0
0.5410821643286573,-0.03275957102738039,-0.47249845911976623,0.056001981106336106,0.24298230225719036,1.4300344085995118,0.0,0.0
0.561122244488978,-0.041667581881993335,-0.4454005427306472,0.06037938505810961,0.21887019758867493,1.4892903911427677,0.0,0.0
0.5811623246492986,-0.05001179145037447,-0.4172104784190566,0.06426774894003787,0.19441819409641292,1.5358092502379437,0.0,0.0
0.6012024048096192,-0.057775186856762466,-0.3881697703194001,0.06766463163560243,0.16984413477822857,1.5975740899415383,0.0,0.0
0.6212424849699398,-0.06493466706882656,-0.3579740106032045,0.07055559521527234,0.14454817898349498,1.996990893186536,0.0,0.0
0.6412825651302605,-0.07133527320866213,-0.32003030699177903,0.07272605291424766,0.10852288494876594,1.7235319679218326,0.0,0.0
0.6613226452905812,-0.07708431964545902,-0.28745232183984437,0.07434934883880118,0.08116479622767554,1.8140627696141551,0.0,0.0
0.6813627254509018,-0.08214697171082924,-0.25313260326851095,0.07538303761341278,0.05168443873058025,1.714646671089698,0.0,0.0
0.7014028056112224,-0.08656231428804252,-0.22076712886066394,0.07589168038121714,0.025432138390218254,1.7156268234594132,0.0,0.0
0.721442885771543,-0.0903301157208281,-0.18839007163927882,0.07587794857633584,-0.0006865902440652966,1.6421525440447946,0.0,0.0
0.7414829659318637,-0.09347903251423124,-0.15744583967015768,0.07538459503178235,-0.024667677227674555,1.5677203105120214,0.0,0.0
0.7615230460921844,-0.09603795402776766,-0.12794607567682081,0.0744518783217577,-0.04663583550123239,1.4655350909449725,0.0,0.0
0.781563126252505,-0.09804646695767337,-0.10042564649528554,0.0731334496870499,-0.06592143173538985,1.4282468703527016,0.0,0.0
0.8016032064128256,-0.09951873196753551,-0.07361325049310664,0.07144267347839395,-0.08453881043279783,1.26432306866769,0.0,0.0
0.8216432865731462,-0.10051819986459111,-0.04997339485277982,0.0694644160504788,-0.09891287139575694,1.3060235956714537,0.0,0.0
0.8416833667334669,-0.10102802962627692,-0.025491488084290505,0.06716179778501562,-0.11513091327315947,1.1553021859233445,0.0,0.0
0.8617234468937875,-0.10110634833236586,-0.003915935304446359,0.06460814364958048,-0.1276827067717572,1.1174462851875326,0.0,0.0
0.8817635270541082,-0.1007671846737988,0.01695818292835284,0.061809357360648014,-0.1399393144466234,1.035876403828879,0.0,0.0
0.9018036072144289,-0.1000415510224735,0.03628168256626482,0.058795315268402176,-0.1507021046122917,0.9302341799780215,0.0,0.0
0.9218436873747494,-0.09896979119829227,0.053587991209061714,0.05560860626934575,-0.1593354499528212,0.8240943302721979,0.0,0.0
0.9418837675350701,-0.09759239643524267,0.06886973815247978,0.0522910454125254,-0.16587804284101793,0.6519051538396735,0.0,0.0
0.9619238476953907,-0.09597559229230646,0.080840207146811,0.048922224627486674,-0.168441039251936,0.5573624709037228,0.0,0.0
0.9819639278557114,-0.09415529985219047,0.09101462200579918,0.045536095357531614,-0.16930646349775286,0.5071978315684702,0.0,0.0
1.002004008016032,-0.09215012244552676,0.10025887033318533,0.04214059168927525,-0.16977518341281814,0.40632065827911346,0.0,0.0
1.0220440881763526,-0.08999844820353324,0.10758371209967557,0.03877323361103574,-0.16836790391197576,0.11194669460076001,0.0,0.0
1.0420841683366733,-0.08781417429316798,0.10921369551826295,0.03558483042915317,-0.15942015909412843,0.0812730490251971,0.0,0.0
1.062124248496994,-0.08560836119305056,0.1102906550058713,0.032573223065645675,-0.15058036817537473,0.0817766033236444,0.0,0.0
1.0821643286573146,-0.08337995416323467,0.11142035149079423,0.029719141016013546,-0.14270410248160642,0.07199315179517701,0.0,0.0
1.1022044088176353,-0.08113195657769241,0.11239987927711308,0.027010318148561068,-0.13544114337262383,0.06079266239791079,0.0,0.0
1.122244488977956,-0.07886796568899893,0.11319954443467435,0.024436231226861817,-0.1287043460849626,0.0464387167793716,0.0,0.0
1.1422845691382766,-0.0765928473314974,0.1137559178750759,0.021989049509634515,-0.12235908586136503,0.027254706875222603,0.0,0.0
1.1623246492985972,-0.07431338805140222,0.11397296400475926,0.01966456648785816,-0.11622415108881769,0.011136436948371024,0.0,0.0
1.1823647294589177,-0.07203521296413841,0.11390875436319065,0.017457556161446453,-0.11035051632058544,-0.005944067039844885,0.0,0.0
1.2024048096192383,-0.06976435606121396,0.11354284514622211,0.015364095686421391,-0.10467302375125304,-0.022387952413651685,0.0,0.0
1.222444889779559,-0.0675066352353475,0.11288604129332322,0.013380605598340768,-0.09917450440403117,-0.27085925276475675,0.0,0.0
1.2424849699398797,-0.06535844166811827,0.10740967836146142,0.011639915554218831,-0.08703450220609683,-0.34675231450098554,0.0,0.0
1.2625250501002003,-0.06334889292853806,0.10047743697901115,0.010175447182635322,-0.0732234185791754,-0.24623844690221602,0.0,0.0
1.282565130260521,-0.06143834749430952,0.09552727171142661,0.008919176554422288,-0.0628135314106517,-0.14710157692272685,0.0,0.0
1.3026052104208417,-0.05958776032517583,0.09252935845668459,0.007805194878740726,-0.055699083784078146,0.06545098212168848,0.0,0.0
1.3226452905811623,-0.057713869274875255,0.09369455251502856,0.006702145693167731,-0.055152459278649736,-0.04510205143185678,0.0,0.0
1.342685370741483,-0.05585949878436417,0.09271852452555412,0.005667742107797322,-0.05172017926852046,-0.03015793634319517,0.0,0.0
1.3627254509018036,-0.0540185209293692,0.09204889274974871,0.00468671993482633,-0.04905110864854961,-0.05292605961748949,0.0,0.0
1.3827655310621243,-0.05219953931488902,0.09094908072400883,0.0037662117513489095,-0.04602540917387101,-0.039388771406941615,0.0,0.0
1.4028056112224447,-0.05039700757854297,0.09012658681730258,0.0028924942386506377,-0.043685875634913586,-0.0627293701273618,0.0,0.0
1.4228456913827654,-0.04861978344573448,0.08886120664042474,0.0020737114806418057,-0.04093913790044159,0.011326461783721306,0.0,0.0
1.442885771543086,-0.046838733766429226,0.08905248396526237,0.0012613797980708685,-0.04061658412854685,-0.017863506288865242,0.0,0.0
1.4629258517034067,-0.045065016409239905,0.0886858678594662,0.00046745199874290416,-0.03969638996639822,-0.038240983783958626,0.0,0.0
1.4829659318637274,-0.04330635565519621,0.08793303770218482,-0.0003011581042418549,-0.03843050514923795,-0.05590965973947812,0.0,0.0
1.503006012024048,-0.04156942599330953,0.08684648309433383,-0.0010389616342035939,-0.03689017649808695,-0.0678703390641829,0.0,0.0
1.5230460921843687,-0.039858683327838006,0.08553713327357626,-0.0017436145032162396,-0.03523264345063229,-0.08446797233851147,0.0,0.0
1.5430861723446894,-0.038180402518650326,0.08391404045938411,-0.0024098511200624103,-0.03331183084230853,-0.09654032496493015,0.0,0.0
1.56312625250501,-0.03653910354748829,0.08206494855810194,-0.003034810849871136,-0.03124798649043627,-0.10762419709485462,0.0,0.0
1.5831663326653307,-0.03493893248991534,0.08000855287864725,-0.003615951041006539,-0.02905700955677015,-0.11268025666303746,0.0,0.0
1.6032064128256511,-0.03338169576798072,0.0778618360967312,-0.004153978840744535,-0.026901389986899803,-0.12187362226358658,0.0,0.0
1.6232464929859718,-0.03187082664020583,0.07554345638874413,-0.0046469093604535605,-0.02464652598545129,-0.20460929186850052,0.0,0.0
1.6432865731462925,-0.030438469365919173,0.07161786371433292,-0.005049453591585484,-0.020127211556596213,-0.1839101058636423,0.0,0.0
1.6633266533066131,-0.029076431182211652,0.06810190918537608,-0.005376258529545271,-0.01634024689798934,-0.17335931094265802,0.0,0.0
1.6833667334669338,-0.02778050120404749,0.06479649890820809,-0.00563555703167602,-0.0129649251065374,-0.16341734853279868,0.0,0.0
1.7034068136272544,-0.026546725484342167,0.061688785985266115,-0.005834800061219921,-0.00996215147719505,-0.15230734836313395,0.0,0.0
1.723446893787575,-0.025370711498110158,0.058800699311600486,-0.0059817430826118075,-0.007347151069594316,-0.1403595453175532,0.0,0.0
1.7434869739478958,-0.024247754784758015,0.05614783566760713,-0.006084301798284964,-0.005127935783657821,-0.13091644541892222,0.0,0.0
1.7635270541082164,-0.023174141007634624,0.053680688856169514,-0.006148646836964322,-0.003217251933967942,-0.11742150378762323,0.0,0.0
1.783567134268537,-0.022144585656329978,0.05147776756523229,-0.006183077997931149,-0.00172155804834132,-0.11098877908167726,0.0,0.0
1.8036072144288577,-0.021156568650274307,0.049400850302783565,-0.006191575307674106,-0.0004248654871478843,-0.10557323153586556,0.0,0.0
1.8236472945891782,-0.020207974271461912,0.04742971894061971,-0.006177360235453889,0.0007107536110108688,-0.10442334170957168,0.0,0.0
1.8436873747494988,-0.019298357878948104,0.04548081962569036,-0.006141015777364672,0.001817222904460824,-0.09924799169100049,0.0,0.0
1.8637274549098195,-0.018425710340272725,0.04363237693376889,-0.006085340111960927,0.002783783270187242,-0.09343608216148815,0.0,0.0
1.8837675350701402,-0.017587779662809135,0.04189653387317943,-0.006013381874570827,0.0035979118695050175,-0.08882202002251421,0.0,0.0
1.9038076152304608,-0.01678278595113137,0.04024968558388821,-0.005927386327410592,0.00429977735801173,-0.08607017000066941,0.0,0.0
1.9238476953907815,-0.016009680015163126,0.03865529679841213,-0.005828420890639599,0.004948271838549638,-0.08193163407490814,0.0,0.0
1.9438877755511021,-0.015266875262800189,0.03714023761814683,-0.005718282354457999,0.005506926809079995,-0.07763438297242822,0.0,0.0
1.9639278557114228,-0.014552726369669096,0.03570744465655463,-0.005598789895390095,0.0059746229533951985,-0.07354345947375505,0.0,0.0
1.9839679358717435,-0.013865671206476865,0.03435275815961156,-0.005471583012489313,0.006360344145039106,-0.06964343184388705,0.0,0.0
2.004008016032064,-0.01320422434720424,0.03307234296363124,-0.005338140893311057,0.006672105958912778,-0.06592665757865848,0.0,0.0
2.024048096192385,-0.01256697366282119,0.03186253421915242,-0.005199796212395224,0.00691723404579164,-0.0674786927143551,0.0,0.0
2.0440881763527052,-0.011954564451921291,0.030620460544994968,-0.005054768665739647,0.00725137733277888,-0.0628709001705844,0.0,0.0
2.064128256513026,-0.011365240208129927,0.029466212189568245,-0.004904839087752431,0.00749647889936081,-0.05857654367039843,0.0,0.0
2.0841683366733466,-0.010797368140415495,0.028393603385721552,-0.004751574055569521,0.007663251609145485,-0.05457474019286878,0.0,0.0
2.1042084168336674,-0.010249430575018339,0.027396878269857834,-0.004596347983426783,0.007761303607136863,-0.050847150175172946,0.0,0.0
2.124248496993988,-0.00972001740498764,0.026470658501534978,-0.00444036251735098,0.007799273303790165,-0.047374873709170824,0.0,0.0
2.1442885771543083,-0.009207818370579773,0.025609951720393324,-0.004284665168126757,0.00778486746121115,-0.044050858762856054,0.0,0.0
2.164328657314629,-0.008711580984624389,0.024811869297769237,-0.004130218538398442,0.00772233148641578,-0.04059768239434564,0.0,0.0
2.1843687374749496,-0.008230001999120063,0.024078949275216272,-0.003978068676012465,0.007607493119298818,-0.03804240010112748,0.0,0.0
2.2044088176352705,-0.0077621278887653,0.023393705517738166,-0.003828750875644225,0.0074658900184120126,-0.03564917528062909,0.0,0.0
2.224448897795591,-0.007307067555347813,0.022753016670874343,-0.0036827234943834575,0.007301369063038366,-0.013723648134520088,0.0,0.0
2.244488977955912,-0.006856306951432149,0.022538030195783244,-0.003551891430731741,0.006541603182585835,-0.013456919848664307,0.0,0.0
2.2645290581162323,-0.006409779492512435,0.022326372945985672,-0.0034355856883875576,0.0058152871172091666,-0.016697887264869496,0.0,0.0
2.284569138276553,-0.005968783223708667,0.02204981344018842,-0.0033311769782964516,0.005220435504555308,-0.021751312572206964,0.0,0.0
2.3046092184368736,-0.005535320048189116,0.021673158775977593,-0.0032350507987984277,0.00480630897490119,-0.02326602361324471,0.0,0.0
2.3246492985971945,-0.005110008597975172,0.021265572510697165,-0.003145714916907656,0.004466794094538581,-0.024229505447760636,0.0,0.0
2.344689378757515,-0.004693250455059207,0.020837907145798272,-0.003062042371169862,0.004183627286889704,-0.024911916200671142,0.0,0.0
2.3647294589178354,-0.004285335897039267,0.020395727900997012,-0.0029831063309674636,0.003946802010119921,-0.025296692060425,0.0,0.0
2.3847695390781563,-0.0038864376991204776,0.019944909895939465,-0.002908183941469122,0.0037461194749170944,-0.025614541797256463,0.0,0.0
2.4048096192384767,-0.003496701369803606,0.019486816465843576,-0.0028366168076198977,0.003578356692461206,-0.025835331308506647,0.0,0.0
2.4248496993987976,-0.00311623358048739,0.01902338946581082,-0.0027678244699165778,0.0034396168851660008,0.0014987331029249554,0.0,0.0
2.444889779559118,-0.0027343875909733033,0.01909229947570433,-0.0027173627550554514,0.0025230857430563114,-0.001708955220947855,0.0,0.0
2.464929859719439,-0.002352429587827567,0.019097900157286803,-0.0026830370483522307,0.0017162853351610373,-0.008464413597922979,0.0,0.0
2.4849699398797593,-0.0019730055643062553,0.018971201176065586,-0.002660679144932568,0.0011178951709831372,-0.016665443255993773,0.0,0.0
2.50501002004008,-0.0015993221827494445,0.018684169077840537,-0.0026453506905533128,0.0007664227189627593,-0.022028740323329687,0.0,0.0
2.5250501002004007,-0.0012334767340495176,0.01829227243499634,-0.002633817649810721,0.0005766520371295908,-0.02509715835971611,0.0,0.0
2.5450901803607215,-0.0008766699000743252,0.017840341698759615,-0.0026242123590384183,0.00048026453861512873,-0.02756921715392125,0.0,0.0
2.565130260521042,-0.0005298690953414453,0.017340040236643997,-0.002615028163858662,0.00045920975898781604,-0.02952024500612692,0.0,0.0
2.5851703406813624,-0.00019383829392424534,0.01680154007086,-0.002605065853343018,0.0004981155257822045,-0.03101663592739197,0.0,0.0
2.6052104208416833,0.00013083571815242012,0.016233700603833272,-0.0025933872591896332,0.0005839297076692285,-0.03211614085314549,0.0,0.0
2.6252505010020037,0.00044372053809025393,0.01564424099689169,-0.002579275556978706,0.0007055851105463561,-0.014459895777324087,0.0,0.0
2.6452905811623246,0.0007517020446763231,0.015399075329303456,-0.002572970153727507,0.00031527016255997057,-0.019622784082086564,0.0,0.0
2.665330661322645,0.0010527637379551512,0.015053084663941405,-0.002571411146186971,7.795037702679233e-05,-0.02385722395291339,0.0,0.0
2.685370741482966,0.0013452527830426736,0.01462445225437612,-0.0025721116775374734,-3.5026567525127275e-05,-0.02728220184992275,0.0,0.0
2.7054108216432864,0.0016278328657260664,0.014129004134169646,-0.0025730726516592847,-4.804870609056691e-05,-0.030001470255454767,0.0,0.0
2.7254509018036073,0.0018994431325521342,0.013580513341303386,-0.0025727094345824194,1.8160853843262948e-05,-0.032105768190283664,0.0,0.0
2.7454909819639277,0.002159262327898109,0.012990959767298756,-0.00256978878200251,0.00014603262899546348,-0.03367401107370601,0.0,0.0
2.7655310621242486,0.002406677645635963,0.012370765886892685,-0.0025633748991211827,0.00032069414406637553,-0.03477589618813829,0.0,0.0
2.785571142284569,0.002641257263211775,0.01172898087879061,-0.0025527827685581025,0.0005296065281540079,-0.035472029440390906,0.0,0.0
2.8056112224448895,0.0028627264952980824,0.011073461604315361,-0.0025375383778767618,0.0007622195340670388,-0.035816294210292615,0.0,0.0
2.8256513026052104,0.0030709466312335617,0.010411006796773974,-0.002517344210213204,0.0010097083831778798,-0.02237178454406383,0.0,0.0
2.845691382765531,0.003271158278289378,0.010010582352790807,-0.002499937573408464,0.0008703318402369993,-0.02559425743923202,0.0,0.0
2.8657314629258517,0.003462098954754159,0.009547033823239045,-0.0024833236463493555,0.0008306963529554277,-0.028106053241103508,0.0,0.0
2.885771543086172,0.0036427837307130674,0.009034238797945437,-0.002465928332365976,0.0008697656991689858,-0.030001044491148446,0.0,0.0
2.905811623246493,0.003812468145365668,0.008484220732630025,-0.002446533420239606,0.0009697456063184909,-0.03136103045577997,0.0,0.0
2.9258517034068134,0.003970615937653609,0.007907389614397027,-0.0024242210519260007,0.0011156184156802765,-0.032257814425708166,0.0,0.0
2.9458917835671343,0.004116870763667325,0.0073127413006857786,-0.00239832593166435,0.001294756013082541,-0.032754161952862605,0.0,0.0
2.9659318637274548,0.004251031513205822,0.00670803747692489,-0.0023683944145704164,0.0014965758546966698,-0.03290541461445484,0.0,0.0
2.9859719438877756,0.004373030584031067,0.006099953541262276,-0.002334149272724219,0.0017122570923098677,-0.03276039417613145,0.0,0.0
3.006012024048096,0.004482914750890014,0.005494208342947334,-0.0022954593876577853,0.0019344942533216735,-0.03236192045020229,0.0,0.0
3.0260521042084165,0.004580828418535299,0.0048956833822642,-0.0022523138751898344,0.002157275623397545,-0.020217832037267843,0.0,0.0
