time,x,x_dot,theta,theta_dot,u,x_ref,theta_ref
0.0,-1.1468332738952087,-0.06937419063400947,0.0657001810096508,0.03686635174552885,-4.305598395668487,0.0,0.0
0.02004008016032064,-1.1499191553606443,-0.1542940732717743,0.06936381839009022,0.18318186902197084,-3.0531796486189497,0.0,0.0
0.04008016032064128,-1.154215814978315,-0.21483298088354033,0.07524540170837227,0.29407916591410216,0.8082295721875563,0.0,0.0
0.06012024048096192,-1.1582185637496036,-0.2001374385644328,0.08112939029998924,0.29419942958084827,0.11980680706331015,0.0,0.0
0.08016032064128256,-1.1621975880954265,-0.19895121729114182,0.08745415149667608,0.3162380598343423,0.8831488204212959,0.0,0.0
0.1002004008016032,-1.16585693262452,-0.1829672264546802,0.09381477829153734,0.3180313397430627,0.6278590841311349,0.0,0.0
0.12024048096192384,-1.1692979586781174,-0.17205130267986704,0.10040004909672595,0.32926354025943083,1.4636444960903856,0.0,0.0
0.1402805611222445,-1.172196604276291,-0.14493227990868066,0.10676534470521513,0.3182647804244589,0.29047736482931374,0.0,0.0
0.16032064128256512,-1.1750121273203495,-0.1407761522029291,0.1136329407409358,0.3433798017860333,3.018535290049611,0.0,0.0
0.18036072144288576,-1.1766828463507923,-0.08353595152213489,0.11946177940549033,0.2914419332277262,-0.8362560726898556,0.0,0.0
0.2004008016032064,-1.1787132405560121,-0.10151971026098727,0.12652627909414743,0.3532249844328549,5.979794530207227,0.0,0.0
0.22044088176352705,-1.1784484096285188,0.013241546374666208,0.13091912321847612,0.21964220621643404,0.9026080142089628,0.0,0.0
0.24048096192384769,-1.1778687259366774,0.028984184592077526,0.13561115009556313,0.23460134385434955,2.7148158867499452,0.0,0.0
0.2605210420841683,-1.176269264435058,0.0799730750809645,0.13958295617903343,0.19859030417351536,0.11602615392362203,0.0,0.0
0.280561122244489,-1.1746639197518849,0.0802672341586564,0.14436360301117207,0.23903234160693182,6.045640060017529,0.0,0.0
0.3006012024048096,-1.170743559210134,0.19601802708754185,0.14655537904231888,0.10958880155734102,2.6845956270796467,0.0,0.0
0.32064128256513025,-1.1658185411071287,0.24625090515027245,0.14811538263935511,0.07800017985181189,0.16862948999082805,0.0,0.0
0.3406813627254509,-1.1608695771369966,0.24744819850660849,0.15050707845335623,0.11958479070005532,5.972307068686872,0.0,0.0
0.3607214428857715,-1.1536362690337458,0.3616654051625329,0.15039420384051355,-0.005643730642133277,1.50396799971643,0.0,0.0
0.3807615230460922,-1.1458594269585483,0.38884210375988376,0.1503561725763089,-0.0019015632102327715,0.5735394840866241,0.0,0.0
0.4008016032064128,-1.1379015229089977,0.3978952024775309,0.15092999705095442,0.028691223732276172,4.059590268377123,0.0,0.0
0.42084168336673344,-1.128404610725929,0.47484560915343543,0.15010652937049837,-0.04117338402280182,1.5726686894693356,0.0,0.0
0.4408817635270541,-1.118337312679547,0.5033649023190929,0.149316398485355,-0.0395065442571683,-0.06488768435614412,0.0,0.0
0.4609218436873747,-1.108337388226255,0.49999622266460236,0.14950031628332194,0.009195889898347583,1.148532986878729,0.0,0.0
0.48096192384769537,-1.0979321501601491,0.5202619033052998,0.14995866463349225,0.02291741750851496,1.1091783057924016,0.0,0.0
0.501002004008016,-1.0871370587267926,0.5397545716678235,0.150717064134145,0.03791997503263794,1.82988123995584,0.0,0.0
0.5210420841683366,-1.075671550707253,0.5732754009769858,0.15136417339528158,0.032355463056827904,2.4325650149312823,0.0,0.0
0.5410821643286573,-1.063301020880137,0.6185264913557952,0.15155618267386356,0.009600463929099242,3.215341245755763,0.0,0.0
0.561122244488978,-1.0497205768588416,0.6790222010647742,0.15084243279228468,-0.0356874940789437,2.869016112809734,0.0,0.0
0.5811623246492986,-1.0350649237423712,0.7327826558235193,0.1494182208597996,-0.07121059662425352,2.950914071662428,0.0,0.0
0.6012024048096192,-1.0193017211364213,0.7881601302974958,0.14722698842542317,-0.1095616217188213,2.8986382012268495,0.0,0.0
0.6212424849699398,-1.002450665298352,0.8425527919034612,0.14428466934996895,-0.14711595377271136,3.3955164454377162,0.0,0.0
0.6412825651302605,-0.9843172539962184,0.9066705651066843,0.14028491864759057,-0.19998753511891837,3.2236705784853728,0.0,0.0
0.6613226452905812,-0.964967197973236,0.967502801149116,0.1353009165481579,-0.24920010497163303,2.943520466481077,0.0,0.0
0.6813627254509018,-0.9445081262472114,1.0229535863012322,0.12946227262632523,-0.29193219609163407,2.6926060189881547,0.0,0.0
0.7014028056112224,-0.9230360447932272,1.0736040726992095,0.12287641073669879,-0.32929309448132177,2.555221252132509,0.0,0.0
0.721442885771543,-0.9006025136980237,1.1216765547601748,0.11558038846937607,-0.3648011133661357,2.1996100796252853,0.0,0.0
0.7414829659318637,-0.8773439756237547,1.16292690371345,0.1077335571915978,-0.3923415638889139,1.9354860385383255,0.0,0.0
0.7615230460921844,-0.853361091905615,1.1991441859069822,0.0994390351311519,-0.41472610302229496,1.5792705565905178,0.0,0.0
0.781563126252505,-0.8287903415256153,1.2285375189999883,0.0908509910136885,-0.4294022058731703,1.4321447168949,0.0,0.0
0.8016032064128256,-0.8036866235276945,1.2551858998960412,0.0820004258260475,-0.44252825938204987,1.122236765690951,0.0,0.0
0.8216432865731462,-0.778168269068475,1.2759177229609704,0.07301170449245349,-0.4494360666797004,1.6628561532065287,0.0,0.0
0.8416833667334669,-0.7520218352443236,1.3073216912075714,0.06351262055803535,-0.47495419672090716,0.8523898477368006,0.0,0.0
0.8617234468937875,-0.725560746161943,1.3230544541190319,0.053915769658406915,-0.4798425449814216,-0.23401984283217958,0.0,0.0
0.8817635270541082,-0.6992061373375323,1.3177304412205302,0.0447949806710346,-0.45603944936861585,1.1567623891681216,0.0,0.0
0.9018036072144289,-0.672412835020431,1.3396651158550654,0.035280364092771806,-0.4757308289131398,0.6154681062695058,0.0,0.0
0.9218436873747494,-0.6453893304576349,1.3511752281398062,0.02562815053025242,-0.48261067812596936,-0.7816656012383594,0.0,0.0
0.9418837675350701,-0.6186780635039776,1.3355633476828688,0.016594430052632447,-0.4516860238809986,0.8071094617659555,0.0,0.0
0.9619238476953907,-0.5916565372957034,1.351076310413709,0.007193185243053301,-0.4700622404789573,-0.6756675502737766,0.0,0.0
0.9819639278557114,-0.5649007039246392,1.3377916685532105,-0.001767510400002741,-0.4480347821528021,0.39893321590558783,0.0,0.0
1.002004008016032,-0.5379886967388529,1.3456003592893147,-0.010972706542144522,-0.460259807107089,-0.12973835299624048,0.0,0.0
1.0220440881763526,-0.5111242168427395,1.3432239948056706,-0.020171138488861522,-0.45992159733585,-0.41702594554164585,0.0,0.0
1.0420841683366733,-0.48441676968794245,1.3353723577398513,-0.029252740511676034,-0.4540801011407256,-1.1113210737832482,0.0,0.0
1.062124248496994,-0.4581346999086572,1.3141034889642642,-0.03786882198960913,-0.43080407389665487,-0.5357306520291754,0.0,0.0
1.0821643286573146,-0.4320509582725217,1.3041870818067747,-0.04641028662939373,-0.4270732319892299,-1.451453723669621,0.0,0.0
1.1022044088176353,-0.4065204059410496,1.2765276165736044,-0.05439600266800936,-0.39928580193078184,-1.0343302516011703,0.0,0.0
1.122244488977956,-0.38137800029492763,1.2571202823060998,-0.062120214063755445,-0.3862105697873043,-1.1872830837880641,0.0,0.0
1.1422845691382766,-0.35668119837420376,1.2348400960361925,-0.06954252978506725,-0.37111578606559026,-1.5657435245391285,0.0,0.0
1.1623246492985972,-0.33257549916730456,1.205284960344959,-0.0764892124065764,-0.34733413107545724,-1.8062650885572475,0.0,0.0
1.1823647294589177,-0.309152700749111,1.1711399209096776,-0.0828642143587111,-0.31875009760673456,-2.102670115114627,0.0,0.0
1.2024048096192383,-0.28652654066234184,1.1313080043384582,-0.08853548304095218,-0.2835634341120547,-1.960438807574883,0.0,0.0
1.222444889779559,-0.26463986574111786,1.0943337460611986,-0.09362214267334895,-0.2543329816198382,-1.8780728621379188,0.0,0.0
1.2424849699398797,-0.2434590516810555,1.0590407030031186,-0.09820465728052837,-0.22912573035897046,-1.902607191147598,0.0,0.0
1.2625250501002003,-0.2229923145713507,1.0233368554852393,-0.10229803869556563,-0.20466907075186297,-1.7223899482258274,0.0,0.0
1.282565130260521,-0.20316817411261265,0.9912070229369038,-0.1060332520087586,-0.18676066565964883,-2.085002716088936,0.0,0.0
1.3026052104208417,-0.18412692111970846,0.9520626496452094,-0.10922337803639152,-0.1595063013816465,-1.7341556676532333,0.0,0.0
1.3226452905811623,-0.16573081538086326,0.9198052869422602,-0.11209270755407598,-0.14346647588422273,-2.134298116985401,0.0,0.0
1.342685370741483,-0.14813501965155795,0.879789786465266,-0.11442716598092348,-0.11672292134237494,-1.775938458603511,0.0,0.0
1.3627254509018036,-0.13119912919348556,0.8467945229036197,-0.11644979911519661,-0.10113165671365644,-1.8741965221869181,0.0,0.0
1.3827655310621243,-0.11496085576190879,0.8119136715788384,-0.11811649453881888,-0.08333477118111332,-1.7563901170468585,0.0,0.0
1.4028056112224447,-0.09937378372603217,0.7793536017938308,-0.11950627811980341,-0.06948917904922662,-1.8164052851484604,0.0,0.0
1.4228456913827654,-0.08446090119427056,0.7456441265880802,-0.12059320507989667,-0.05434634800466263,-1.82306677889738,0.0,0.0
1.442885771543086,-0.0702244855868088,0.7118207803730878,-0.12138035894363683,-0.039357693187008054,-1.7309645533045614,0.0,0.0
1.4629258517034067,-0.05662840329372653,0.6798041146541134,-0.12192619583850119,-0.027291844743217775,-1.7204321541139465,0.0,0.0
1.4829659318637274,-0.04366838901391596,0.6480007139905285,-0.12224030964611757,-0.015705690380819197,-1.7004575712237038,0.0,0.0
1.503006012024048,-0.03133656463095524,0.6165912191480362,-0.12233629060622492,-0.004799048005367771,-1.6215017049504605,0.0,0.0
1.5230460921843687,-0.01960212475914387,0.5867219935905682,-0.12226054363218465,0.0037873487020134277,-1.5609259325554383,0.0,0.0
1.5430861723446894,-0.008441478655593089,0.5580323051775391,-0.1220477186960547,0.01064124680649775,-1.4451068268947227,0.0,0.0
1.56312625250501,0.0021904588639331275,0.5315968759763108,-0.12176363497658144,0.014204185973662943,-1.5244520960123298,0.0,0.0
1.5831663326653307,0.012262676780149681,0.5036108958108276,-0.12136046483464699,0.02015850709672245,-1.535660017251481,0.0,0.0
1.6032064128256511,0.021770689658105198,0.4754006438977758,-0.12082914107858554,0.026566187803072485,-1.5831437888454587,0.0,0.0
1.6232464929859718,0.030695834110414696,0.446257222615475,-0.1201387364438849,0.03452023173503228,-1.7037657512775692,0.0,0.0
1.6432865731462925,0.0389908895730178,0.414752773130155,-0.11921487441664867,0.046193101361810984,-1.73476446260722,0.0,0.0
1.6633266533066131,0.04664350279802047,0.38263066125013345,-0.11803367386787188,0.05906002743883978,-1.7640964143123878,0.0,0.0
1.6833667334669338,0.05364189444164446,0.34991958218119923,-0.11657057271229683,0.07315505777875228,-1.6926301014828582,0.0,0.0
1.7034068136272544,0.060013497096857854,0.31858013276066954,-0.11485770854095197,0.08564320856724307,-1.6526715801460161,0.0,0.0
1.723446893787575,0.06577338899541739,0.28799459492797663,-0.11290735179096488,0.09751783749935419,-1.5978732220420038,0.0,0.0
1.7434869739478958,0.07094236577424062,0.25844883894116194,-0.11073888801290416,0.10842318890303608,-1.551464987697898,0.0,0.0
1.7635270541082164,0.0755378902361142,0.22977622309367826,-0.10836545733909433,0.11867153369049141,-1.516503682870672,0.0,0.0
1.783567134268537,0.07957290407465897,0.20175069192723877,-0.10579225987178238,0.12865987336559753,-1.4160595646250156,0.0,0.0
1.8036072144288577,0.08308582435667751,0.1756460141009265,-0.10306129783142506,0.13654810201786588,-1.3615690257145934,0.0,0.0
1.8236472945891782,0.0860971081567196,0.15056419000210472,-0.10018689154845557,0.14372031414847486,-1.4822138616960376,0.0,0.0
1.8436873747494988,0.08855888061983831,0.12308862315593583,-0.09708061038903526,0.15531405797101547,-1.4430903115390694,0.0,0.0
1.8637274549098195,0.09048549603520976,0.09633077076857291,-0.0937454542439806,0.1667578072527326,-1.3426302355731878,0.0,0.0
1.8837675350701402,0.09191516351433775,0.07148337395639909,-0.090218685264675,0.17633844896528045,-1.1901432951189843,0.0,0.0
1.9038076152304608,0.09290633158529948,0.049558403548086646,-0.08656668699323092,0.1825999135722039,-1.1703877211167897,0.0,0.0
1.9238476953907815,0.09346565309375039,0.027966075422545335,-0.08277780665924947,0.18944401669907243,-1.0808222688346065,0.0,0.0
1.9438877755511021,0.09362696958515962,0.008065824570461493,-0.07888020880808892,0.1948798925580274,-0.9915386196261203,0.0,0.0
1.9639278557114228,0.09342398518871393,-0.010149219822284401,-0.07490124442573569,0.1989482191176618,-0.837491895023299,0.0,0.0
1.9839679358717435,0.09291564612460945,-0.025416953205224104,-0.0709055503483805,0.199784703867759,-0.6987378543412415,0.0,0.0
2.004008016032064,0.09215493488778546,-0.03803556184119969,-0.06694880026153172,0.19783750434243916,-0.6405181241762129,0.0,0.0
2.024048096192385,0.09116343393398132,-0.049575047690207104,-0.06303997611884431,0.19544120713437058,-0.6363638159975354,0.0,0.0
2.0440881763527052,0.08994164886417041,-0.06108925349054551,-0.05915682549292317,0.19415753129605692,-0.5769680364767192,0.0,0.0
2.064128256513026,0.08851164256386157,-0.07150031501544213,-0.05530950626333773,0.19236596147927215,-0.5111646806062651,0.0,0.0
2.0841683366733466,0.08689798904347631,-0.08068267601926302,-0.05151216032162727,0.18986729708552308,-0.42255497675588594,0.0,0.0
2.1042084168336674,0.08513417563501498,-0.08819067042306669,-0.0477925822805981,0.18597890205145834,-0.3654429399543219,0.0,0.0
2.124248496993988,0.08324142441488006,-0.09463756100674577,-0.04416067698248803,0.18159526490550346,-0.31279946985522017,0.0,0.0
2.1442885771543083,0.08123923951194331,-0.10010924514683713,-0.04062430187880377,0.17681875518421314,-0.2697288688692485,0.0,0.0
2.164328657314629,0.07914341751307788,-0.1047910999432719,-0.03718633070986354,0.17189855844701135,-0.22455803523699108,0.0,0.0
2.1843687374749496,0.07697060261718823,-0.10864074479448238,-0.03385149081419277,0.16674199478353866,-0.18877506517399278,0.0,0.0
2.2044088176352705,0.07473380544831701,-0.1118398584435612,-0.030619676854451452,0.1615906979870657,-0.15606254567381508,0.0,0.0
2.224448897795591,0.0724448678298279,-0.11444688092445526,-0.027489640837441008,0.15650180085052218,0.16731725729052874,0.0,0.0
2.244488977955912,0.07022908016994922,-0.11078938299393351,-0.02463073757547457,0.1429451630983218,0.11839587449361394,0.0,0.0
2.2645290581162323,0.06806653871216628,-0.10812707288914682,-0.021996353159748412,0.13171922078630788,0.1429484798265085,0.0,0.0
2.284569138276553,0.06596607277154774,-0.10502329703092715,-0.019584248696743883,0.12060522315022652,0.10751836024600854,0.0,0.0
2.3046092184368736,0.06391316854169951,-0.1026452114924114,-0.017358504664907386,0.11128720159182481,0.09811524994453698,0.0,0.0
2.3246492985971945,0.061903520883168674,-0.100482382926542,-0.015299594325448213,0.10294551697295863,0.08793984215122054,0.0,0.0
2.344689378757515,0.05993257056335663,-0.09854751599060228,-0.013388588865024056,0.09555027302120792,0.07817440041331057,0.0,0.0
2.3647294589178354,0.057995960303944084,-0.09683051297062713,-0.011607730087472783,0.08904293887756362,0.0930814028124357,0.0,0.0
2.3847695390781563,0.05609899755428809,-0.09484813748279973,-0.009954510713599304,0.0826609686936739,0.08998267528561772,0.0,0.0
2.4048096192384767,0.05423999993073175,-0.09294988117781698,-0.008416695635989022,0.07689075388051408,0.09152088680602143,0.0,0.0
2.4248496993987976,0.052419127397137694,-0.09104362667970296,-0.006985489123394494,0.07156032562972636,0.20735528596576888,0.0,0.0
2.444889779559118,0.05068117154222964,-0.08689779274540277,-0.005719625596899979,0.06329317632472578,0.14803289943417894,0.0,0.0
2.464929859719439,0.049002620815057386,-0.08392753635861258,-0.004576422856621855,0.05716013701390618,0.15357118569126996,0.0,0.0
2.4849699398797593,0.04738530893615041,-0.08086559394534891,-0.0035519125165366164,0.05122551700426195,0.12129416911860746,0.0,0.0
2.50501002004008,0.045816347078486176,-0.0784480928832115,-0.002620753607862721,0.046557945433694764,0.11504770773210804,0.0,0.0
2.5250501002004007,0.04429303090320689,-0.07616580876396453,-0.0017734206100132226,0.04236664989247492,0.0979698059967333,0.0,0.0
2.5450901803607215,0.04280845335599477,-0.07422887736060566,-0.0009945803626411097,0.038942012368605644,0.08270638578995869,0.0,0.0
2.565130260521042,0.04135643504807006,-0.07260091539623577,-0.0002703929236076031,0.03620937195167533,0.0916983906188038,0.0,0.0
2.5851703406813624,0.0399402773400546,-0.07080788540077283,0.00039844829854251745,0.03344206110750603,0.0862289471463716,0.0,0.0
2.6052104208416833,0.03855765421330926,-0.06913115633726677,0.001019360484361589,0.031045609290953582,0.06559902047500889,0.0,0.0
2.6252505010020037,0.037200337365386894,-0.06786584239611843,0.0016083270762741533,0.029448329595628216,0.2624913440678852,0.0,0.0
2.6452905811623246,0.03594499048516717,-0.06276734401098613,0.002053885503692437,0.022277921370914184,0.19010716718254006,0.0,0.0
2.665330661322645,0.03476323965651306,-0.05908754143270555,0.0024011883346265256,0.01736514154670443,0.15645958525588066,0.0,0.0
2.685370741482966,0.03364185515846968,-0.05606922490216909,0.002672108643601433,0.013546015448745374,0.13850912653777905,0.0,0.0
2.7054108216432864,0.03257375459239719,-0.05340502830362459,0.0028788554285410647,0.010337339246981592,0.1124463742513597,0.0,0.0
2.7254509018036073,0.03154870833074905,-0.051252313082407235,0.0030379784358619943,0.007956150366046482,0.10315832990793264,0.0,0.0
2.7454909819639277,0.03056304632402055,-0.04928310033642492,0.003155914361071972,0.0058967962604988804,0.08222848516058175,0.0,0.0
2.7655310621242486,0.029608567399299974,-0.047723946236028734,0.003245650266854354,0.0044867952891191,0.07246273513283517,0.0,0.0
2.785571142284569,0.028681434986028397,-0.04635662066357894,0.003313464712494247,0.003390722281994666,0.06244163744592094,0.0,0.0
2.8056112224448895,0.027777719154681645,-0.04518579156733748,0.003365647384782275,0.002609133614401388,0.05770231123917454,0.0,0.0
2.8256513026052104,0.026895555540129262,-0.04410818072761913,0.0034052997157032025,0.0019826165460463717,0.13035915595976347,0.0,0.0
2.845691382765531,0.026063285346986043,-0.04161350965716094,0.003390169711025314,-0.0007565002338944405,0.07901765628448894,0.0,0.0
2.8657314629258517,0.02526087813741919,-0.04012036047834258,0.003350195175947257,-0.0019987267539028457,0.06737790174309588,0.0,0.0
2.885771543086172,0.024483803238233872,-0.03885374495926596,0.003291932929144948,-0.002913112340115442,0.05748917496090532,0.0,0.0
2.905811623246493,0.023728218514254728,-0.03777923619895726,0.0032208001689307928,-0.0035566380107077754,0.04904721672593339,0.0,0.0
2.9258517034068134,0.022990850085625073,-0.036868421431482806,0.003141286617662888,-0.0039756775633952475,0.04346468074169832,0.0,0.0
2.9458917835671343,0.022269542294747462,-0.036065389543880486,0.0030561564739326505,-0.004256507186511881,0.03640998818507277,0.0,0.0
2.9659318637274548,0.02156156662026145,-0.03539878372430065,0.002968999687751725,-0.0043578393090462795,0.02741143191274019,0.0,0.0
2.9859719438877756,0.020863436575622476,-0.03490650223194875,0.0028845305346369594,-0.004223457655738267,0.024209388169585032,0.0,0.0
3.006012024048096,0.020173926852467522,-0.03447548615774765,0.002804089451569396,-0.004022054153378162,0.021697251294541968,0.0,0.0
3.0260521042084165,0.01949208020724039,-0.034092332261356655,0.0027286387022099974,-0.003772537467969935,0.006686231332905768,0.0,0.0
3.0460921843687374,0.018812060578576702,-0.03400098143318438,0.0026664835041474368,-0.0031077599031280293,0.0077653748105259365,0.0,0.0
3.066132264529058,0.01813430689167473,-0.033887684345098666,0.0026166006397416435,-0.002494143220289656,0.00990366150204387,0.0,0.0
3.0861723446893787,0.01745966785925163,-0.03373195162115498,0.002577424711980888,-0.001958796388037775,0.011833000649854434,0.0,0.0
3.106212424849699,0.016788907588406593,-0.033538013542251846,0.0025475800696516957,-0.0014922321164596113,0.013669739942306787,0.0,0.0
