time,x,x_dot,theta,theta_dot,u,x_ref,theta_ref
0.0,0.4034571847403816,-0.08482962805032734,-0.05987168890514033,-0.03327701318061292,-1.0637810424786183,0.0,0.0
0.02004008016032064,0.4013627004213685,-0.10472421595065558,-0.06029344853653631,-0.02108798156979892,-0.7865274611259336,0.0,0.0
0.04008016032064128,0.3989786094309254,-0.11920454952215485,-0.060635947780050575,-0.017124962175713423,-0.8471587007396679,0.0,0.0
0.06012024048096192,0.3962813567108384,-0.13486263600434967,-0.060865958955794164,-0.01150055878717933,-0.9768116616378393,0.0,0.0
0.08016032064128256,0.39322042823472075,-0.1530464238058831,-0.06090925425698248,-0.002164765059415789,-0.9251002269477748,0.0,0.0
0.1002004008016032,0.38981601029249197,-0.17022089711143912,-0.06079629347287452,0.005648039205398128,-1.013154704490982,0.0,0.0
0.12024048096192384,0.38603371849736284,-0.18911458975645737,-0.060474961364847916,0.01606660540133016,-1.1319505239292276,0.0,0.0
0.1402805611222445,0.38182711525725427,-0.2103301620054295,-0.0598738764962625,0.03005424342927074,-1.2301180321860383,0.0,0.0
0.16032064128256512,0.37715772908787754,-0.233469308468836,-0.05893192225537807,0.047097712044221626,-1.1801575211811999,0.0,0.0
0.18036072144288576,0.37204477764009064,-0.2556475723893439,-0.05767229283886873,0.06298147082546705,-1.1627709905340282,0.0,0.0
0.2004008016032064,0.3664946787626289,-0.27750494387308555,-0.056097154789583076,0.07875690246428262,-1.0748334698271975,0.0,0.0
0.22044088176352705,0.3605412835731518,-0.29766975947385693,-0.05424787350568682,0.0924640641948126,-0.9701122662051821,0.0,0.0
0.24048096192384769,0.35422491323395566,-0.31581851695980734,-0.0521738919392594,0.10369907832137105,-0.9050944690684919,0.0,0.0
0.2605210420841683,0.34757033559859235,-0.3327288817681645,-0.049900057979754345,0.11369169797525278,-0.8584730400248393,0.0,0.0
0.280561122244489,0.3405950846346424,-0.3487625481974995,-0.0474392202309079,0.12304188744232233,-0.8379974066645661,0.0,0.0
0.3006012024048096,0.33330644020749595,-0.364432221357322,-0.044787778280850454,0.13257209750287233,-0.813033205767867,0.0,0.0
0.32064128256513025,0.32571337897124464,-0.3796530618125664,-0.04194355361246804,0.14221123341912054,-0.7325674081363185,0.0,0.0
0.3406813627254509,0.3178464779753025,-0.3933450497971069,-0.038935588693795535,0.15039824593362555,-0.6656197575313252,0.0,0.0
0.3607214428857715,0.30973099426590406,-0.40577418546992416,-0.03578400548633314,0.1575791603731197,-0.619754607317418,0.0,0.0
0.3807615230460922,0.30138391876152665,-0.4173537752188713,-0.032495707473850784,0.16441490062411798,-0.58266494148559,0.0,0.0
0.4008016032064128,0.2928187798201652,-0.42825694706807405,-0.02907161299847214,0.17120472376893228,-0.5212740500028773,0.0,0.0
0.42084168336673344,0.28405854989140544,-0.4380114964379858,-0.02552599865206255,0.17728071732047931,-0.398695073610868,0.0,0.0
0.4408817635270541,0.2751500436818158,-0.4454253104794835,-0.021908164051254085,0.18089173004042325,-0.3378925947394823,0.0,0.0
0.4609218436873747,0.2661159510759535,-0.451704630293114,-0.01823084194193998,0.18386610546570528,-0.25330537702767525,0.0,0.0
0.48096192384769537,0.25698822683573,-0.456386212011172,-0.014520307890346208,0.1855267025796885,-0.15774828412873126,0.0,0.0
0.501002004008016,0.24780309770925535,-0.4592564563237342,-0.010809052447695552,0.18556277213253278,-0.07175912787094758,0.0,0.0
0.5210420841683366,0.2385930572846167,-0.4605020212319326,-0.00712397187215591,0.1842540287769821,0.013538586859683871,0.0,0.0
0.5410821643286573,0.22939033714837062,-0.4601360068123034,-0.0034917270285316714,0.1816122421812119,0.08542164818529256,0.0,0.0
0.561122244488978,0.22022194933840009,-0.45841939049852626,6.85333167217278e-05,0.17801301726266996,0.13748791349423,0.0,0.0
0.5811623246492986,0.21110719329446337,-0.4557378021968354,0.003548798985688013,0.17401328344831427,0.17836500819936002,0.0,0.0
0.6012024048096192,0.20206102475124357,-0.45230842716098935,0.006947102172207937,0.1699151593259962,0.24554142663476403,0.0,0.0
0.6212424849699398,0.19310868522315303,-0.44761697640452774,0.010245576257702923,0.16492370427474926,0.2179564592981698,0.0,0.0
0.6412825651302605,0.18423846623825746,-0.4435109492447781,0.013481158235587914,0.16177909889424957,0.26888149431660935,0.0,0.0
0.6613226452905812,0.17546931363192955,-0.4384576303163949,0.01664446640188229,0.15816540831471895,0.4322417249098199,0.0,0.0
0.6813627254509018,0.16686406777904125,-0.43026229264441485,0.019659905855082975,0.15077197266003411,0.4237315399186332,0.0,0.0
0.7014028056112224,0.15841854341985268,-0.42227621795942943,0.02255147958277455,0.14457868638457883,0.46610413792805866,0.0,0.0
0.721442885771543,0.15014844582246978,-0.41350487986914525,0.02531265303820572,0.13805867277155853,0.5617567831808508,0.0,0.0
0.7414829659318637,0.14209030740536038,-0.40290692085546925,0.027904917648493937,0.1296132305144108,0.6388217163792946,0.0,0.0
0.7615230460921844,0.13427345485470077,-0.39084262753298055,0.030299577489164967,0.11973299203355155,0.66432020164831,0.0,0.0
0.781563126252505,0.12670714935813288,-0.3783152748283949,0.03249684687454615,0.10986346926905913,0.6906109067812544,0.0,0.0
0.8016032064128256,0.11940101756579426,-0.365306589616931,0.034495233882927065,0.09991935041904586,0.6849938026278626,0.0,0.0
0.8216432865731462,0.11235229277303395,-0.35243623963801535,0.03631064620081888,0.09077061589459079,1.148530658032136,0.0,0.0
0.8416833667334669,0.10574131940531924,-0.33054866838573554,0.03768360042518852,0.06864771121848227,0.7295541723542257,0.0,0.0
0.8617234468937875,0.09940422084116432,-0.3168549282077456,0.03886767927625579,0.05920394255336343,1.1250875421850308,0.0,0.0
0.8817635270541082,0.0934949864835236,-0.2954617178820359,0.03963918880763635,0.03857547656902799,0.5881013422469418,0.0,0.0
0.9018036072144289,0.08780387054299549,-0.2845557970264058,0.04031685377094768,0.03388324816556654,1.0917793185086169,0.0,0.0
0.9218436873747494,0.082527203239182,-0.26383336519067435,0.040610589798160096,0.01468680136062082,0.6147948310902862,0.0,0.0
0.9418837675350701,0.0774787898610274,-0.2524206689077303,0.040801016434303006,0.009521331807145438,1.0172004017543168,0.0,0.0
0.9619238476953907,0.07281558569719547,-0.2331602081915965,0.04065416434964149,-0.007342604233075766,0.681303851381754,0.0,0.0
0.9819639278557114,0.06840657324355427,-0.22045062268206017,0.04036540907844366,-0.014437763559891367,0.8882513895150479,0.0,0.0
1.002004008016032,0.06433258225135653,-0.20369954960988712,0.03981198054078033,-0.02767142688316668,0.8250971585985859,0.0,0.0
1.0220440881763526,0.06056913076913428,-0.18817257411111232,0.039027288991949946,-0.039234577441519085,0.6063072656810594,0.0,0.0
1.0420841683366733,0.057031076958560946,-0.1769026905286668,0.03813424831249324,-0.04465203397283504,0.612195990471116,0.0,0.0
1.062124248496994,0.05372097514472794,-0.16550509069165026,0.037123776659095324,-0.05052358266989582,0.5432876479390685,0.0,0.0
1.0821643286573146,0.05061222862557358,-0.155437325957718,0.036029770046639,-0.05470033062281614,0.4271037718301491,0.0,0.0
1.1022044088176353,0.04765981787124219,-0.1476205377165695,0.03491323527481706,-0.05582673859109718,0.3243348629949768,0.0,0.0
1.122244488977956,0.04482396347813696,-0.1417927196552615,0.03382720156322028,-0.054301685579839234,0.31908959988610425,0.0,0.0
1.1422845691382766,0.04210292977417091,-0.13605168519830255,0.03276788466447881,-0.05296584493707334,0.31282022608577825,0.0,0.0
1.1623246492985972,0.03949457386010428,-0.13041779570333162,0.03173226768318156,-0.05178084906486223,0.30266916895542983,0.0,0.0
1.1823647294589177,0.03699523144385483,-0.12496712081247235,0.030719752758955797,-0.05062574621128828,0.29455509776610456,0.0,0.0
1.2024048096192383,0.03460202644003225,-0.11966025019112932,0.02972869715680898,-0.049552780107340814,0.26514548099891955,0.0,0.0
1.222444889779559,0.03230376707968435,-0.11491296801739471,0.028770044759021875,-0.04793261988935531,0.20957847627078346,0.0,0.0
1.2424849699398797,0.030079045534121825,-0.11123607727812641,0.027870239035033127,-0.04499028619943742,0.22776521850876907,0.0,0.0
1.2625250501002003,0.027935215915581433,-0.10719148092701962,0.027012971746655283,-0.04286336441889224,0.23882312043216483,0.0,0.0
1.282565130260521,0.025876838562738022,-0.10291886764217055,0.02618637061389083,-0.04133005663822259,0.25854148851191144,0.0,0.0
1.3026052104208417,0.023911844477570013,-0.09824970425840052,0.02537369216396472,-0.04063392249630555,0.24290456800918386,0.0,0.0
1.3226452905811623,0.022034364867108025,-0.09387398052309931,0.02457895434573864,-0.039736890911304085,0.23681469762988913,0.0,0.0
1.342685370741483,0.020242251110943695,-0.08960568780821655,0.02380070581725462,-0.03891242642420089,0.23706224097831216,0.0,0.0
1.3627254509018036,0.018535822788359736,-0.08532141612919787,0.023033893330814834,-0.03834062432198926,0.22737694244894224,0.0,0.0
1.3827655310621243,0.016911520319700817,-0.08121512343294596,0.022279344393511372,-0.03772744686517305,0.23706111046042622,0.0,0.0
1.4028056112224447,0.01537333879776006,-0.07690907609703788,0.02152663665259335,-0.03763538704590115,0.2285319787567734,0.0,0.0
1.4228456913827654,0.013918165769118395,-0.0727586514320832,0.020776010566828096,-0.03753130428826258,0.1974182533636084,0.0,0.0
1.442885771543086,0.012534075356893534,-0.06920452061124303,0.02004092800648867,-0.03675412801697126,0.1912940818561027,0.0,0.0
1.4629258517034067,0.011218888453199518,-0.06575934518470085,0.019320334651253393,-0.03602966776176391,0.18462680044510327,0.0,0.0
1.4829659318637274,0.009970209869123252,-0.06243392920381334,0.0186135852832696,-0.03533746839918968,0.17719755198152579,0.0,0.0
1.503006012024048,0.008785343115839995,-0.05924333766416287,0.01792056772927318,-0.03465087769982104,0.16951391706164975,0.0,0.0
1.5230460921843687,0.007661488500784,-0.05619273075279975,0.01724140530178513,-0.033958121374402475,0.16189388991845993,0.0,0.0
1.5430861723446894,0.006595867178486238,-0.053281066114888094,0.01657627159044678,-0.03325668556691751,0.15498002037342046,0.0,0.0
1.56312625250501,0.005585971835659798,-0.05049476714132202,0.015925015733365386,-0.03256279285406952,0.14964687774418206,0.0,0.0
1.5831663326653307,0.0046299080095802015,-0.04780319130397983,0.015286649918327342,-0.0319182907519022,0.141085295518661,0.0,0.0
1.6032064128256511,0.0037245177445902533,-0.04526951324949742,0.01466215597346969,-0.031224697242882665,0.13323041836955252,0.0,0.0
1.6232464929859718,0.002866914875377796,-0.042880143460622855,0.014052189947961868,-0.030498301275391115,0.054016785217584073,0.0,0.0
1.6432865731462925,0.0020263634251730823,-0.0420275725102357,0.013499237843096748,-0.027647605243256067,0.08073969653005869,0.0,0.0
1.6633266533066131,0.00121344963120802,-0.04064568969825312,0.012984182453443606,-0.025752769482657097,0.08673785797417603,0.0,0.0
1.6833667334669338,0.00043066167817581264,-0.03913939765161037,0.012500267496365097,-0.02419574785392539,0.09320292869667501,0.0,0.0
1.7034068136272544,-0.0003193389603784471,-0.037500031927712986,0.012040659876569895,-0.022980380989760144,0.09622582191957577,0.0,0.0
1.723446893787575,-0.0010352409774184164,-0.03579510085199846,0.011600693125939136,-0.02199833753153795,0.09683800320098161,0.0,0.0
1.7434869739478958,-0.0017166794005301846,-0.0340719211555884,0.011177234690799955,-0.021172921756959066,0.09708324244346818,0.0,0.0
1.7635270541082164,-0.0023634371730449494,-0.03233788862573824,0.010767470741722532,-0.020488197453871117,0.09592393817098795,0.0,0.0
1.783567134268537,-0.0029758492444156718,-0.030620603568536114,0.010369495364105013,-0.019898768880875963,0.09376969215581443,0.0,0.0
1.8036072144288577,-0.0035546421898443887,-0.028939647271435855,0.009982058961950924,-0.01937182010770442,0.09149141744563866,0.0,0.0
1.8236472945891782,-0.00410059400287366,-0.02729759065146355,0.009604050954651637,-0.01890040036496437,0.04164047619302023,0.0,0.0
1.8436873747494988,-0.004633049347890217,-0.026622767250827854,0.009262247502620398,-0.017090172601561912,0.05648988128776079,0.0,0.0
1.8637274549098195,-0.005146115688606677,-0.025653317035822965,0.008945807176312012,-0.01582201631541932,0.06417620977234605,0.0,0.0
1.8837675350701402,-0.005636702949810991,-0.024529363060215678,0.008648238429804311,-0.014878437325385076,0.0691641096163477,0.0,0.0
1.9038076152304608,-0.006102779450793226,-0.02330382504911175,0.008364747127546078,-0.014174565112911592,0.07211789729949969,0.0,0.0
1.9238476953907815,-0.006543111301492258,-0.02201659253495161,0.008091817739198932,-0.013646469417357325,0.07353840895769581,0.0,0.0
1.9438877755511021,-0.006957065958122203,-0.02069773283149726,0.007826898217981678,-0.013245976060862714,0.07381723584806857,0.0,0.0
1.9639278557114228,-0.007344458684345328,-0.019369636311156214,0.007568154853079174,-0.012937168245125237,0.07320661585637762,0.0,0.0
1.9839679358717435,-0.0077054535970205165,-0.018049745633759433,0.0073143131640179705,-0.012692084453060184,0.07197917459121889,0.0,0.0
2.004008016032064,-0.008040456916205852,-0.016750165959266785,0.007064490393711674,-0.012491138515314835,0.07025019020292678,0.0,0.0
2.024048096192385,-0.008350071728086475,-0.015480740594031135,0.006818122511437524,-0.01231839411370753,0.045144715732291923,0.0,0.0
2.0440881763527052,-0.008644024193809663,-0.014697623286159398,0.00658834153893007,-0.011489048625372684,0.05037401418747184,0.0,0.0
2.064128256513026,-0.008920207853365747,-0.013809182977804223,0.006370639554254188,-0.010885099233794127,0.05365339302677048,0.0,0.0
2.0841683366733466,-0.009177280613996622,-0.012853638031543699,0.006161725417693886,-0.010445706828015083,0.05555491880907925,0.0,0.0
2.1042084168336674,-0.00941444057312977,-0.011857997956657429,0.005959169388282082,-0.010127801470590206,0.05633194300923571,0.0,0.0
2.124248496993988,-0.009631326458432263,-0.010844294265124663,0.005761239605309427,-0.00989648914863273,0.05629009212539406,0.0,0.0
2.1442885771543083,-0.009827897868681292,-0.009828570512451451,0.005566712390334594,-0.009726360748741662,0.055625370082041464,0.0,0.0
2.164328657314629,-0.010004358437624018,-0.008823028447136292,0.0053747498776631555,-0.009598125633571939,0.05449300595620538,0.0,0.0
2.1843687374749496,-0.010161095019702016,-0.00783682910389991,0.0051848039288009285,-0.009497297443111372,0.05301230919957714,0.0,0.0
2.2044088176352705,-0.010298630975499634,-0.006876797789880843,0.004996542885077956,-0.009413052186148642,0.05127510543938951,0.0,0.0
2.224448897795591,-0.01041759024408007,-0.005947963429021776,0.004809795762077758,-0.009337356150009909,0.023505110880122606,0.0,0.0
2.244488977955912,-0.010528755854890048,-0.0055582805404989265,0.004639629414697588,-0.008508317369008507,0.029847340688926326,0.0,0.0
2.2645290581162323,-0.01062960413541895,-0.005042414026445065,0.004481260787972064,-0.007918431336276174,0.03410658279719818,0.0,0.0
2.284569138276553,-0.010718427628433586,-0.0044411746507318235,0.004331199694117276,-0.007503054692739416,0.037004496483694874,0.0,0.0
2.3046092184368736,-0.010794052482250172,-0.0037812426908293366,0.0041868046604515916,-0.007219751683284195,0.03867709911085273,0.0,0.0
2.3246492985971945,-0.01085578461646503,-0.003086606710742872,0.004046186708833813,-0.007030897580888931,0.039490542177647754,0.0,0.0
2.344689378757515,-0.010903266299053126,-0.0023740841294047866,0.0039079832586197735,-0.006910172510701974,0.039618975325179294,0.0,0.0
2.3647294589178354,-0.010936407798297985,-0.0016570749622429712,0.003771247663307787,-0.006836779765599329,0.03923088331263161,0.0,0.0
2.3847695390781563,-0.01095532136447682,-0.0009456783089417846,0.0036353446834746102,-0.00679514899165884,0.03844890641592921,0.0,0.0
2.4048096192384767,-0.010960273190463532,-0.00024759129933553934,0.0034998747407468537,-0.006773497136387826,0.03736787828965455,0.0,0.0
2.4248496993987976,-0.010951646290714358,0.00043134498745871317,0.003364615923669852,-0.006762940853850077,0.019756753461465493,0.0,0.0
2.444889779559118,-0.010936274209504292,0.0007686040605033126,0.003239017258379807,-0.006279933264502259,0.023576459850612026,0.0,0.0
2.464929859719439,-0.010912630398659803,0.001182190542224466,0.0031200523058307205,-0.005948247627454327,0.026020474532668435,0.0,0.0
2.4849699398797593,-0.010879727041456731,0.0016451678601535793,0.003005541195489589,-0.005725555517056565,0.027546666704444993,0.0,0.0
2.50501002004008,-0.010836935755590086,0.002139564293332262,0.002893869040418908,-0.005583607753534051,0.02817877565999436,0.0,0.0
2.5250501002004007,-0.010783977866708313,0.0026478944440886804,0.002783961867774192,-0.005495358632235796,0.02840878476145739,0.0,0.0
2.5450901803607215,-0.010720732116033275,0.0031622875337519027,0.002674992051030842,-0.005448490837167497,0.02810490110825494,0.0,0.0
2.565130260521042,-0.010647285852168656,0.003672313193230945,0.0025664501862778188,-0.005427093237651171,0.02754218934327209,0.0,0.0
2.5851703406813624,-0.010563827547784928,0.0041729152191864296,0.0024579809753260116,-0.005423460547590354,0.02655540234433971,0.0,0.0
2.6052104208416833,-0.01047071118150339,0.004655818314076927,0.0023494776501935674,-0.005425166256622205,0.025549196315097333,0.0,0.0
2.6252505010020037,-0.010368298299984,0.005120644075969497,0.002240844587651401,-0.005431653127108307,0.016017261916862625,0.0,0.0
2.6452905811623246,-0.010260277372944004,0.005401046351999773,0.002136972657389051,-0.0051935965131175,0.01735709333171042,0.0,0.0
2.665330661322645,-0.010146095790147741,0.005709079139813075,0.0020364230777851267,-0.005027478980196225,0.01825172629777929,0.0,0.0
2.685370741482966,-0.010025375621556625,0.006036008429555772,0.0019380384461543554,-0.0049192315815385695,0.018165186334879773,0.0,0.0
2.7054108216432864,-0.009898122436766807,0.006362659239490876,0.0018412489705861737,-0.004839473778409086,0.017921483274512293,0.0,0.0
2.7254509018036073,-0.009764403591699614,0.006685942253359684,0.0017455868542719832,-0.004783105815709525,0.01731842423654887,0.0,0.0
2.7454909819639277,-0.00962442699543904,0.00699882981302869,0.001650801622906064,-0.004739261568295948,0.016548458571093914,0.0,0.0
2.7655310621242486,-0.00947846593971438,0.007298052786233033,0.0015567459677242777,-0.004702782759089323,0.015790244016731077,0.0,0.0
2.785571142284569,-0.009326789339788586,0.007583829996289631,0.0014632703067259274,-0.004673783049917511,0.014961849081362789,0.0,0.0
2.8056112224448895,-0.00916969366338173,0.007854783820342867,0.0013702697690893247,-0.004650026881830137,0.013995976508019002,0.0,0.0
2.8256513026052104,-0.009007529161754083,0.00810822508138236,0.001277722900937008,-0.004627343407615841,0.008319435766866171,0.0,0.0
2.845691382765531,-0.00884248444150573,0.00825223601241756,0.0011883667228122488,-0.004467808906237962,0.008505279975084996,0.0,0.0
2.8657314629258517,-0.0086744613687068,0.008401153639946514,0.0011015290396423013,-0.004341884158497375,0.008391352930051783,0.0,0.0
2.885771543086172,-0.008503479509844,0.008549092943140034,0.00101672889605015,-0.004240007179607567,0.008043207748695108,0.0,0.0
2.905811623246493,-0.008329650413438548,0.008691454820272585,0.0009336351967026062,-0.004154684967377194,0.007514019271953233,0.0,0.0
2.9258517034068134,-0.008153156764941353,0.008824682424859778,0.0008520335126089414,-0.0040800842046832386,0.006846701695627888,0.0,0.0
2.9458917835671343,-0.007974235579037408,0.008946059295197232,0.0007717996253018528,-0.004011694365354427,0.0060766136526061686,0.0,0.0
2.9659318637274548,-0.007793164366183491,0.009053560642695852,0.0006928780596755209,-0.003946078281316598,0.0052320250462040575,0.0,0.0
2.9859719438877756,-0.007610250085055901,0.009145714056379465,0.0006152651970278419,-0.0038806431323839484,0.004335920937097844,0.0,0.0
3.006012024048096,-0.007425820172144564,0.009221495645566855,0.0005389958065949876,-0.0038134695216427124,0.0034071972181198293,0.0,0.0
3.0260521042084165,-0.00724021517804976,0.009280249704740166,0.0004641322112103873,-0.003743179769230016,-0.0020030714154886274,0.0,0.0
