time,x,x_dot,theta,theta_dot,u,x_ref,theta_ref
0.0,1.407335743928631,0.0769785908153727,0.10628341062302626,-0.09356027982336892,9.999999999999998,0.0,0.0
0.02004008016032064,1.412744175046507,0.2704215558938112,0.09926864794005655,-0.35073813414848554,9.999999999968413,0.0,0.0
0.04008016032064128,1.422024056748951,0.4639940851221963,0.08706128545682026,-0.610368124161814,9.999999999999995,0.0,0.0
0.06012024048096192,1.4351798593344294,0.6577901292739153,0.0695766335904026,-0.8742325933208832,7.822484236022026,0.0,0.0
0.08016032064128256,1.4513682852035112,0.8094212934540904,0.04796541255849817,-1.0805610515952215,9.167570836167176,0.0,0.0
0.1002004008016032,1.4711209017760045,0.9876308286246586,0.021299142239349634,-1.3333135159574268,3.8984178767077653,0.0,0.0
0.12024048096192384,1.4923893677956765,1.0634233009835983,-0.007513815350359207,-1.440647879485442,1.1618725590780645,0.0,0.0
0.1402805611222445,1.51411307428317,1.086185324374673,-0.03705334107906187,-1.4769762864351332,-4.528338027940964,0.0,0.0
0.16032064128256512,1.5340789160194184,0.9982920868124121,-0.06417721314679378,-1.3561936033865956,-0.9188059441621945,0.0,0.0
0.18036072144288576,1.553702362289949,0.9811723135265341,-0.09116573694313916,-1.3494261898172688,-9.999999999961563,0.0,0.0
0.2004008016032064,1.5694486499917657,0.787314385090832,-0.11290126942750082,-1.086776624218083,-2.0285597208809234,0.0,0.0
0.22044088176352705,1.5844335386223598,0.7492444315297065,-0.13416471964698973,-1.0631725109744448,-2.14061319946364,0.0,0.0
0.24048096192384769,1.5986191965405578,0.7092828959099022,-0.15502687214403682,-1.0431076248523548,-4.211309757204134,0.0,0.0
0.2605210420841683,1.6112047310171942,0.6292767238318182,-0.17442644918987044,-0.9699788522916808,-4.0723943823433455,0.0,0.0
0.280561122244489,1.6222503057213866,0.5522787352096197,-0.19257235531026995,-0.9072953060199749,-4.671000864331513,0.0,0.0
0.3006012024048096,1.6315286372233382,0.46391657509757334,-0.20924265951901533,-0.8335152104372692,-6.124910277486925,0.0,0.0
0.32064128256513025,1.6384796374139068,0.34755000952842785,-0.22372086919733944,-0.723910483916206,-6.327834679449354,0.0,0.0
0.3406813627254509,1.6430297325944925,0.2275047590292858,-0.23599338309112655,-0.6136256946893557,-6.846351052939783,0.0,0.0
0.3607214428857715,1.6449820303357652,0.0976148870636343,-0.24585351163637156,-0.49300642726225075,-6.791964601807586,0.0,0.0
0.3807615230460922,1.6443615810618502,-0.031022463695745794,-0.2534031071485083,-0.37747977560683615,-6.805046950947775,0.0,0.0
0.4008016032064128,1.6411663261854965,-0.15976274381767946,-0.2586893639872347,-0.26431284193632115,-6.345104724107243,0.0,0.0
0.42084168336673344,1.6355770389633828,-0.2794643611056837,-0.26200947421091475,-0.1660055111840042,-4.853610673698008,0.0,0.0
0.4408817635270541,1.6281742154990129,-0.37014117321849255,-0.2642258591633439,-0.11081924762145864,-4.341528491890657,0.0,0.0
0.4609218436873747,1.6191574617770463,-0.45083768609832237,-0.2656414994353893,-0.07078201360226877,-6.214705807947627,0.0,0.0
0.48096192384769537,1.6077999496087223,-0.5678756084162029,-0.2652139761945555,0.02137616204168931,-4.239520297831657,0.0,0.0
0.501002004008016,1.5948684762326268,-0.6465736688047754,-0.2640497592362927,0.058210847913140726,-4.626766943943899,0.0,0.0
0.5210420841683366,1.5802123080702848,-0.7328084081171082,-0.2619233993122467,0.10631799620230215,-3.8466292319497377,0.0,0.0
0.5410821643286573,1.5641336917555895,-0.8039308157347699,-0.25925903534442934,0.13321819839086646,-4.828728975573821,0.0,0.0
0.561122244488978,1.546250391346581,-0.8941650204504219,-0.25548622907559476,0.1886403134417285,-4.259101494904306,0.0,0.0
0.5811623246492986,1.5267823899388744,-0.9734000703853367,-0.2509000069228576,0.22931110763685886,-4.484209760038548,0.0,0.0
0.6012024048096192,1.50564075863088,-1.0570815653997199,-0.2453424128664396,0.2778797028208997,-4.07675803342788,0.0,0.0
0.6212424849699398,1.48298198476199,-1.132938693444491,-0.23900592418682345,0.3168244339808067,-5.88264488358036,0.0,0.0
0.6412825651302605,1.458102216260652,-1.2439884250669035,-0.23082581063835622,0.4090056774233622,-5.324367683160322,0.0,0.0
0.6613226452905812,1.4312155130180721,-1.3443351621289987,-0.2210613629609772,0.4882223838689515,-4.839342508217555,0.0,0.0
0.6813627254509018,1.4025070768364347,-1.4354218090818718,-0.20992095275066672,0.5570205105155237,-4.2863124874211165,0.0,0.0
0.7014028056112224,1.3721882804004124,-1.515939821801119,-0.1976440295163397,0.613846161716351,-3.7846423653847356,0.0,0.0
0.721442885771543,1.3404503634748284,-1.5868958462792042,-0.18443504488927231,0.6604492313533682,-3.291650879836596,0.0,0.0
0.7414829659318637,1.307481101143994,-1.6484631165417187,-0.1704891683040043,0.6972938292634018,-2.9949130120813474,0.0,0.0
0.7615230460921844,1.2733918206616859,-1.7044640241154,-0.1558856596708425,0.7301754316580898,-2.3850445325865928,0.0,0.0
0.781563126252505,1.2384157438289223,-1.7488038416381813,-0.14088123634428357,0.7502211663279469,-2.2300429033379854,0.0,0.0
0.8016032064128256,1.202608951360877,-1.7903396234022648,-0.12546898392175962,0.770612621126198,-1.8274565925770148,0.0,0.0
0.8216432865731462,1.1661239521420843,-1.8242499609396385,-0.109783412644245,0.7842785638757309,-1.76150983117966,0.0,0.0
0.8416833667334669,1.1289820433354691,-1.857095440330757,-0.0937628489526744,0.80102818457853,-1.5142381813961818,0.0,0.0
0.8617234468937875,1.0912751479838816,-1.8853447675793764,-0.07744922925237895,0.8156809850147725,-1.4071429162423663,0.0,0.0
0.8817635270541082,1.0530404865467449,-1.911733071856834,-0.060801488695864825,0.8323870278257061,-1.1452830248575174,0.0,0.0
0.9018036072144289,1.0143755855586725,-1.9332450494036255,-0.043867053036371104,0.846721782974686,-0.8606868949601455,0.0,0.0
0.9218436873747494,0.9753868120142951,-1.9494386772188663,-0.02670527353671601,0.8580889749827547,-0.5512246387475266,0.0,0.0
0.9418837675350701,0.9361902145469493,-1.9598298733672919,-0.009388974226005698,0.8658149655355155,-0.07086914968586083,0.0,0.0
0.9619238476953907,0.8969685159965775,-1.9610849275185893,0.007909779658257426,0.8649376942131561,0.5140365616223657,0.0,0.0
0.9819639278557114,0.8579452553193625,-1.9511630338607462,0.02495755192705532,0.8523886134398946,1.083039563797025,0.0,0.0
1.002004008016032,0.8193378089578163,-1.9303723180773142,0.041528829943974485,0.8285639008459584,1.4549639628145195,0.0,0.0
1.0220440881763526,0.7812867234358079,-1.9025542761004193,0.05751077391125201,0.7990971983638763,4.632799373291068,0.0,0.0
1.0420841683366733,0.7450273119030405,-1.812970576638367,0.07114909186221775,0.6819158975482871,3.6926779956879927,0.0,0.0
1.062124248496994,0.7101886743426166,-1.7419318780211943,0.08308071122290883,0.5965809680345541,3.5085975370049254,0.0,0.0
1.0821643286573146,0.6766953772435556,-1.6746648549530532,0.09349018457919386,0.5204736678142519,2.667323904877148,0.0,0.0
1.1022044088176353,0.6442161447962645,-1.623961622364551,0.10293472854250127,0.4722271981653702,2.9341196887081207,0.0,0.0
1.122244488977956,0.6128521714688215,-1.5681986663721488,0.11132008852027807,0.41926799888884014,2.493463256723873,0.0,0.0
1.1422845691382766,0.5824290989536509,-1.52115362575853,0.11895651223570838,0.381821185771516,2.7099627933524073,0.0,0.0
1.1623246492985972,0.5530290320157998,-1.4700033468925546,0.1257676035805317,0.34055456724116634,2.4569000906042833,0.0,0.0
1.1823647294589177,0.524551263558727,-1.423888422853634,0.13194413623330326,0.3088266326385775,2.6580069282830525,0.0,0.0
1.2024048096192383,0.4970723167275238,-1.3739473415601646,0.13740948595422184,0.27326748604592876,2.4329621358614046,0.0,0.0
1.222444889779559,0.4705028342328772,-1.3284741247323295,0.14232926643418273,0.24598902399804484,3.8336071964516227,0.0,0.0
1.2424849699398797,0.44538710567190015,-1.2557864280488533,0.14592536660906652,0.17980500874419006,3.4090228819284976,0.0,0.0
1.2625250501002003,0.42155853208115446,-1.191428679537284,0.1484669128639683,0.12707731274508915,3.0898938320600715,0.0,0.0
1.282565130260521,0.3988919695301532,-1.1333281275500635,0.15015493276897487,0.08440099525032882,2.598767298585077,0.0,0.0
1.3026052104208417,0.3771955511440168,-1.0848209193068186,0.15128405693951397,0.056456208526954245,2.4947254214869594,0.0,0.0
1.3226452905811623,0.3564284007017025,-1.0383575221157142,0.15192166797999257,0.031880552023930246,2.1945330256426114,0.0,0.0
1.342685370741483,0.3364733777489407,-0.9977511476380916,0.1522451822406082,0.01617571303078118,2.14353466347599,0.0,0.0
1.3627254509018036,0.31731051851529224,-0.9581429616824234,0.15228611931075028,0.002046853507104436,2.0491098633025007,0.0,0.0
1.3827655310621243,0.2989030252348974,-0.9203746640197398,0.15209924811320827,-0.009343559877100237,1.9798250529833041,0.0,0.0
1.4028056112224447,0.28122396082646167,-0.8839532204217867,0.15172336534507627,-0.018794138406600297,2.1386369707097628,0.0,0.0
1.4228456913827654,0.2643353038927086,-0.8444328466876527,0.15106438302723044,-0.03294911589229245,3.0813443619201735,0.0,0.0
1.442885771543086,0.2486045087210685,-0.786539758582004,0.1495737913724295,-0.07452958274004695,2.668577001803987,0.0,0.0
1.4629258517034067,0.23387122152954498,-0.7366643595761759,0.14748023901502838,-0.10467761787005594,2.1262131851811015,0.0,0.0
1.4829659318637274,0.21992476423416332,-0.6973228647690832,0.14508348709667565,-0.11983759591763707,1.9644152586506736,0.0,0.0
1.503006012024048,0.2067028010087838,-0.6610981612689756,0.14246165346249198,-0.1310916817091833,1.816720721533866,0.0,0.0
1.5230460921843687,0.19414854843973342,-0.6277126284525187,0.1396833419343388,-0.13891557640766006,1.648870044295864,0.0,0.0
1.5430861723446894,0.18219740584686595,-0.5975571296433744,0.13682789470812792,-0.142772361310543,1.417946082000962,0.0,0.0
1.56312625250501,0.17076020557815955,-0.5718600134353199,0.13401075520255123,-0.14085697527883476,1.4267081749748383,0.0,0.0
1.5831663326653307,0.15984116518272992,-0.5459520197714809,0.13120896184411915,-0.14008966792160488,1.4342490289433483,0.0,0.0
1.6032064128256511,0.1494440238349804,-0.5198570673874758,0.12840035010407175,-0.1404305870023694,1.4303277219821784,0.0,0.0
1.6232464929859718,0.13956805696804112,-0.4937983433469645,0.125569347318491,-0.14155013927903687,1.8268210691425808,0.0,0.0
1.6432865731462925,0.1303686206787595,-0.4599718144640801,0.12246811648585627,-0.15506154163173697,1.7054402671919604,0.0,0.0
1.6633266533066131,0.1217993073902679,-0.4284656644245806,0.11914723150770447,-0.1660442489075902,1.3556667816644934,0.0,0.0
1.6833667334669338,0.11372473372109991,-0.4037286834583995,0.11578845137679297,-0.1679390065455746,1.3377931293163903,0.0,0.0
1.7034068136272544,0.10613889498476639,-0.37929193681667583,0.11238082401659988,-0.17038136800965484,1.2801591170568116,0.0,0.0
1.723446893787575,0.0990202995767178,-0.3559297704024294,0.10893618511127533,-0.17223194526622726,1.1517136699621855,0.0,0.0
1.7434869739478958,0.09231985568260671,-0.33502219470555444,0.10550730570764921,-0.1714439701813057,1.0748729360864615,0.0,0.0
1.7635270541082164,0.08600858165868006,-0.31556370119633315,0.10211712601930187,-0.1695089844173671,0.9107362689909475,0.0,0.0
1.783567134268537,0.08002344251631194,-0.29925695711840616,0.09883962771965767,-0.16387491498221018,0.8839523101746565,0.0,0.0
1.8036072144288577,0.07435492393288255,-0.2834259291714693,0.09566968053215534,-0.15849735937511625,0.8731095150709309,0.0,0.0
1.8236472945891782,0.0689996977771597,-0.2677613077861426,0.09259356501144506,-0.15380577603551415,0.9920181980741315,0.0,0.0
1.8436873747494988,0.06400501097360069,-0.24973434017795057,0.08952262641817911,-0.15354692966329728,0.9325368270818624,0.0,0.0
1.8637274549098195,0.059348544184099114,-0.23282333947507855,0.08647206687023701,-0.1525279773971054,0.9169974725989425,0.0,0.0
1.8837675350701402,0.05502510855826786,-0.2161717812915628,0.08343164307246045,-0.152021189888828,0.8689966517747056,0.0,0.0
1.9038076152304608,0.051016851831160996,-0.20041283635534302,0.08041009272879933,-0.1510775171830561,0.8878028427804701,0.0,0.0
1.9238476953907815,0.04733197284104667,-0.18424394950571635,0.07737735209053541,-0.15163703191319605,0.8183377812785358,0.0,0.0
1.9438877755511021,0.04394424464219505,-0.16938640994258103,0.07435473756286144,-0.1511307263836984,0.847499310553756,0.0,0.0
1.9639278557114228,0.04086590667494295,-0.15391689836260483,0.07130613932426128,-0.15242991193000802,0.7664892929874527,0.0,0.0
1.9839679358717435,0.03806623191312639,-0.13998373809082768,0.06825953212393639,-0.15233036001624445,0.7309889600338612,0.0,0.0
2.004008016032064,0.035532243611305636,-0.12669941509103777,0.06521637560031884,-0.15215782618087728,0.6737045921473126,0.0,0.0
2.024048096192385,0.033242465533014805,-0.11448890391454151,0.06219087195119233,-0.1512751824563257,0.6686609232046556,0.0,0.0
2.0440881763527052,0.031195795185514436,-0.10233351737501838,0.05916685739704484,-0.15120072770737442,0.6066845582120332,0.0,0.0
2.064128256513026,0.02936891928839833,-0.09134379485580521,0.05616141464337053,-0.15027213768371525,0.5481261839660039,0.0,0.0
2.0841683366733466,0.027739851563466773,-0.08145338624657786,0.053189761869723726,-0.14858263868234026,0.4644781185241885,0.0,0.0
2.1042084168336674,0.026276806480890494,-0.07315225412881399,0.05028199574609145,-0.1453883061816139,0.39642514395567685,0.0,0.0
2.124248496993988,0.02495406323580899,-0.06613716225407519,0.047459523109746944,-0.14112363181722534,0.3213950195874852,0.0,0.0
2.1442885771543083,0.023743153497680455,-0.060545486906426624,0.04474837676697112,-0.1355573171387913,0.2950832370948618,0.0,0.0
2.164328657314629,0.022634584569506493,-0.05542844640869808,0.04214683702760063,-0.13007698696852446,0.27721100971223817,0.0,0.0
2.1843687374749496,0.021622125495263725,-0.05062295371213845,0.039648945789856976,-0.12489456188718256,0.2660982699662493,0.0,0.0
2.2044088176352705,0.020702153392334194,-0.04599860514647655,0.03724544885221299,-0.12017484688219944,0.2394224435322951,0.0,0.0
2.224448897795591,0.01986494621567259,-0.04186035883308023,0.0349367839636257,-0.11543324442936445,0.18091624900953482,0.0,0.0
2.244488977955912,0.019088334922017898,-0.03883056468273455,0.0327425956705728,-0.10970941465264507,0.157170342407244,0.0,0.0
2.2645290581162323,0.018363680676018356,-0.03623271229997709,0.03066293406345192,-0.1039830803560439,0.1430781781055563,0.0,0.0
2.284569138276553,0.017686078875113562,-0.03388009004523963,0.02869292823125949,-0.09850029160962152,0.1309290566664171,0.0,0.0
2.3046092184368736,0.01705135191386135,-0.031736348062610574,0.026827262667704292,-0.09328327817775989,0.11808796649837183,0.0,0.0
2.3246492985971945,0.016455022492071918,-0.02981647108947165,0.02506168434895849,-0.08827891593729001,0.11039548280820236,0.0,0.0
2.344689378757515,0.015894593828607216,-0.02802143317323506,0.02338956067264758,-0.08360618381554558,0.0996191067469795,0.0,0.0
2.3647294589178354,0.015366339171421689,-0.026412732859276387,0.021806651505610633,-0.07914545835184741,0.0885743745403306,0.0,0.0
2.3847695390781563,0.01486640161257847,-0.024996877942160958,0.020309436180003415,-0.07486076628036097,0.07841336356234072,0.0,0.0
2.4048096192384767,0.014391244630093168,-0.023757849124265082,0.018894417558000354,-0.07075093110015307,0.06770656178285639,0.0,0.0
2.4248496993987976,0.013937095259406326,-0.02270746853434206,0.017558935997217893,-0.06677407803912307,0.013796046914411823,0.0,0.0
2.444889779559118,0.013483298978892713,-0.022689814025680682,0.016326101966429342,-0.06164170153942762,0.01749945866875499,0.0,0.0
2.464929859719439,0.013031653778145191,-0.02258226003737606,0.015185977017885606,-0.05700624742718682,0.020638020705834478,0.0,0.0
2.4849699398797593,0.012583710777605055,-0.022397150027006846,0.01412953721898341,-0.05282198994510977,0.02097487350840364,0.0,0.0
2.50501002004008,0.012139903918981345,-0.022190342931185526,0.013149924723865692,-0.04898062475588591,0.022633836939544228,0.0,0.0
2.5250501002004007,0.011701161104423576,-0.02193714072788849,0.012239992598148184,-0.045496606285875416,0.023721700295027758,0.0,0.0
2.5450901803607215,0.011268167462547855,-0.021649682093786052,0.011393367152121147,-0.042331272301351835,0.02255272858759294,0.0,0.0
2.565130260521042,0.010840709350961309,-0.02137290557932732,0.010605393841473956,-0.039398665532359524,0.017157554740977334,0.0,0.0
2.5851703406813624,0.010416907185159733,-0.021190108290078846,0.009874259942730215,-0.036556694937187065,0.01687029325481153,0.0,0.0
2.6052104208416833,0.009996858333871825,-0.021002442564395405,0.009195523303363142,-0.03393683196835359,0.017482709263183654,0.0,0.0
2.6252505010020037,0.009580996243482031,-0.020793104519489677,0.008564545853696662,-0.031548872483324046,-0.020220450847437052,0.0,0.0
2.6452905811623246,0.009154789032091461,-0.021310360569528508,0.007999403283577532,-0.028257128505956467,-0.006141567662733922,0.0,0.0
2.665330661322645,0.008723892540227051,-0.021544824593220543,0.007488296626334241,-0.025555332862164545,0.0015505484853494192,0.0,0.0
2.685370741482966,0.00829145487180863,-0.021621883420920997,0.007023503495811364,-0.02323965652614385,0.008125590128159716,0.0,0.0
2.7054108216432864,0.007860174960462034,-0.021563995567329797,0.006598246923184574,-0.021262828631339492,0.012661973378864742,0.0,0.0
2.7254509018036073,0.007431944882806679,-0.021411503882767746,0.0062071917341282815,-0.019552759452814653,0.015690480003787387,0.0,0.0
2.7454909819639277,0.007008058508341022,-0.021194318723282805,0.005846100441393467,-0.01805456463674072,0.017610485502600123,0.0,0.0
2.7655310621242486,0.006589368558000809,-0.020934497517010688,0.005511572918102645,-0.01672637616454108,0.021290695845818552,0.0,0.0
2.785571142284569,0.0061774070185259605,-0.020598076973742403,0.005199346878060048,-0.015611302002129863,0.03712036743873981,0.0,0.0
2.8056112224448895,0.005778440514717857,-0.019948325190405156,0.004898193649382017,-0.01505766143390152,0.031323825680350956,0.0,0.0
2.8256513026052104,0.005390293405789957,-0.01940735544639501,0.004609604933739227,-0.014429435782139514,-0.03362921115646096,0.0,0.0
2.845691382765531,0.004987702078527909,-0.020129566363102386,0.004369756233922587,-0.011992434990832024,-0.017548477262230928,0.0,0.0
2.8657314629258517,0.00457701038363388,-0.020534584744701444,0.004167728416381535,-0.010101390877052592,-0.007713896455536289,0.0,0.0
2.885771543086172,0.004162113927510558,-0.020744822806166095,0.0039964946117919805,-0.008561690229477746,-0.003879216124823349,0.0,0.0
2.905811623246493,0.003744558177878675,-0.020877787481594145,0.0038527318719563585,-0.007188136991781095,0.006553450681815566,0.0,0.0
2.9258517034068134,0.00332845543322166,-0.020805137232850754,0.003729430859617254,-0.006165050616955231,0.014245182823907594,0.0,0.0
2.9458917835671343,0.0029168425454386446,-0.020580644389150766,0.0036213146209401045,-0.005405811933857476,0.022023366424475672,0.0,0.0
2.9659318637274548,0.0025127857504293866,-0.020202839750462897,0.003523151380227327,-0.004908162035638879,0.038820505973143314,0.0,0.0
2.9859719438877756,0.0021228678604154018,-0.019495894500699246,0.0034244963083003344,-0.00493275359634963,0.03642253505104612,0.0,0.0
3.006012024048096,0.0017461814036019306,-0.018834322840673556,0.003326130021393674,-0.004918314345333029,0.034366698925934476,0.0,0.0
3.0260521042084165,0.001381952335130397,-0.018211453423576683,0.003228634819373658,-0.004874760101000782,-0.0010981705981261344,0.0,0.0
3.0460921843687374,0.0010163692945880675,-0.018279152027116483,0.003152141778279318,-0.0038246520547169987,-0.002936115176774317,0.0,0.0
3.066132264529058,0.0006487369932389061,-0.018381615067458074,0.003097243679248378,-0.0027449049515470003,0.008703003129233913,0.0,0.0
3.0861723446893787,0.0002836130502801658,-0.01825619714793701,0.00305678579925837,-0.0020228939995004117,0.017363575841024468,0.0,0.0
3.106212424849699,-7.561135902959442e-05,-0.017961220465488013,0.003025446833325717,-0.0015669482966326536,0.023735491502230983,0.0,0.0
