time,x,x_dot,theta,theta_dot,u,x_ref,theta_ref
0.0,1.8240068385159014,-0.058463637984170626,0.1313779541098123,-0.07014357538359595,9.999999999999998,0.0,0.0
0.02004008016032064,1.8266977690849935,0.13454652845460147,0.12500806301115952,-0.31849455493263834,9.999999999999998,0.0,0.0
0.04008016032064128,1.8332513564870705,0.3276793701038516,0.11362566637746019,-0.5691198316849666,9.999999999999998,0.0,0.0
0.06012024048096192,1.843671996344423,0.5210319928676248,0.0971499613301297,-0.8237852523665246,9.99999999999998,0.0,0.0
0.08016032064128256,1.8579658446885854,0.7146924172081135,0.07546543796981654,-1.0842261680156575,9.999999999999932,0.0,0.0
0.1002004008016032,1.876140520794538,0.9087338052976357,0.048422905649439185,-1.3521266160188676,9.1733666061482,0.0,0.0
0.12024048096192384,1.8978821411218691,1.0870810163665572,0.01632400419893283,-1.6049450725253176,7.57132190199583,0.0,0.0
0.1402805611222445,1.9225743732816882,1.234611607990959,-0.020101540285627127,-1.8212772242279978,2.833948229715359,0.0,0.0
0.16032064128256512,1.948376912524283,1.2901269621297324,-0.05830928414515511,-1.9103871929763994,-8.394785743142952,0.0,0.0
0.18036072144288576,1.9709169237225672,1.1270005599142134,-0.09197705478294957,-1.6833885318897226,-1.68068746005443,0.0,0.0
0.2004008016032064,1.9928226153901913,1.095284583381204,-0.12523768526413878,-1.6630315240594602,-1.6074975895972945,0.0,0.0
0.22044088176352705,2.01413048480671,1.065393470825927,-0.15834317663764713,-1.6552745686754182,-2.825684291032895,0.0,0.0
0.24048096192384769,2.0343738364457433,1.012167581951654,-0.19079944504591373,-1.622813420413329,-9.044741742671098,0.0,0.0
0.2605210420841683,2.0511404651322764,0.8383314343266628,-0.21925287534501442,-1.4226715149550344,-6.504837366718858,0.0,0.0
0.280561122244489,2.0654295687095936,0.714455178865869,-0.24535935454533947,-1.3053239600162525,-6.609030115094483,0.0,0.0
0.3006012024048096,2.077209945022317,0.5890188156361811,-0.2692451160009985,-1.1942880727829506,-7.572767663443606,0.0,0.0
0.32064128256513025,2.086116197343236,0.44531261604594063,-0.290540736326283,-1.0647810162642277,-8.632674509942676,0.0,0.0
0.3406813627254509,2.091745752208888,0.28147774328260855,-0.30881363922609123,-0.913645144990411,-9.277368871864313,0.0,0.0
0.3607214428857715,2.093856847132197,0.10555474616544347,-0.32384763888688844,-0.7516999830398614,-9.999999864294356,0.0,0.0
0.3807615230460922,2.0921767162162457,-0.08400654579757227,-0.33536372466287584,-0.57580428879937,-9.99999999909235,0.0,0.0
0.4008016032064128,2.08671125658262,-0.2732729816812994,-0.3434554571997564,-0.40458662684402846,-9.977321363020476,0.0,0.0
0.42084168336673344,2.0774734751439228,-0.4618890719348543,-0.34820131965198176,-0.23729312261126745,-8.397848618464185,0.0,0.0
0.4408817635270541,2.065077082109665,-0.6198196517128964,-0.3505014262329448,-0.11500532904815136,-7.262903253545137,0.0,0.0
0.4609218436873747,2.049962300265929,-0.7557390921868017,-0.35099200342464326,-0.024528859584922832,-6.661769634529084,0.0,0.0
0.48096192384769537,2.0323619499598604,-0.8800175153034119,-0.3500041792341601,0.04939120952415692,-6.213767815595837,0.0,0.0
0.501002004008016,2.012449021387738,-0.9956464286061302,-0.34777483877512005,0.11146702295200336,-5.615215177086583,0.0,0.0
0.5210420841683366,1.99045432692546,-1.0997347231138985,-0.3446143172930979,0.1580260741011072,-6.0735329858003775,0.0,0.0
0.5410821643286573,1.9661994218082677,-1.2127452558596177,-0.34025002516610797,0.21821460634949494,-5.05855004765471,0.0,0.0
0.561122244488978,1.940075621519978,-1.3061900144144838,-0.3352058173786368,0.2522103893735579,-6.123931470559185,0.0,0.0
0.5811623246492986,1.9116688057945996,-1.4203407862689097,-0.32886280377383326,0.3171506802401767,-4.831323799511921,0.0,0.0
0.6012024048096192,1.8814772733099299,-1.509576624233487,-0.3218856210826371,0.3488591345598092,-4.97215953847109,0.0,0.0
0.6212424849699398,1.8494442218322233,-1.6016525738853244,-0.31414867646493916,0.3868472308848963,-8.795110931546478,0.0,0.0
0.6412825651302605,1.8140856435605976,-1.7679289135812866,-0.3034863587035698,0.533115888068468,-8.236394254903034,0.0,0.0
0.6613226452905812,1.775613432579734,-1.9236105490431883,-0.29012594827139904,0.6680205216085383,-7.129086468685566,0.0,0.0
0.6813627254509018,1.734451443495776,-2.0580994541978876,-0.2745829609216346,0.7771493674882209,-6.3878421557779355,0.0,0.0
0.7014028056112224,1.6908813114388948,-2.1785066028440605,-0.25715859025740984,0.8712185332112375,-5.612775008739866,0.0,0.0
0.721442885771543,1.6451976626438296,-2.2841824397532617,-0.23816465666903358,0.949696679418812,-4.652443727608901,0.0,0.0
0.7414829659318637,1.5977671810858116,-2.371524077900894,-0.21801236730913437,1.0076144679949606,-3.939912305220842,0.0,0.0
0.7615230460921844,1.54886053703474,-2.4453322025535886,-0.19697058495222936,1.0520891178452512,-3.563578856648538,0.0,0.0
0.781563126252505,1.4986178167502582,-2.5121360142240814,-0.17511466121995573,1.092796186613682,-2.694188346824899,0.0,0.0
0.8016032064128256,1.4473710973195717,-2.5623359715343206,-0.15280047682162387,1.1157092199165928,-2.825698747302403,0.0,0.0
0.8216432865731462,1.3950629376060082,-2.6154079856781807,-0.1298080812659337,1.1496197777845074,-1.8983851225691453,0.0,0.0
0.8416833667334669,1.3420482974288046,-2.650732008860182,-0.10652619142356931,1.16409449211822,-1.718034290416778,0.0,0.0
0.8617234468937875,1.2883912591537954,-2.6828519137504605,-0.08291156460819932,1.1807313407684994,-1.5786019195531187,0.0,0.0
0.8817635270541082,1.2341399113571483,-2.7125673898323583,-0.05889574823750018,1.200790818534957,-1.1331576794815512,0.0,0.0
0.9018036072144289,1.179461670760625,-2.7339120298261634,-0.034586992836099936,1.215437770070012,-0.7263483213749681,0.0,0.0
0.9218436873747494,1.1245089233937615,-2.7476373683431685,-0.010070184546574337,1.22584041447628,-0.21166257251389287,0.0,0.0
0.9418837675350701,1.0694761714130538,-2.751637599035384,0.014507374925052906,1.2288779735813622,1.5523236309269257,0.0,0.0
0.9619238476953907,1.0150454369898765,-2.721536721158864,0.03826781415847863,1.1880219616712862,2.4944091192751032,0.0,0.0
0.9819639278557114,0.9615780782223858,-2.6733679383745326,0.06080996913261118,1.1271077487066272,2.59290240785301,0.0,0.0
1.002004008016032,0.9091063875703852,-2.6235845326000304,0.08221943268036215,1.0704731773875484,2.78933203572676,0.0,0.0
1.0220440881763526,0.8577010162363709,-2.570268566700716,0.10251842027887367,1.0149493799255758,4.120739657452691,0.0,0.0
1.0420841683366733,0.8078753319786345,-2.491284212886821,0.12106316761999258,0.9272373670559452,3.495632832545553,0.0,0.0
1.062124248496994,0.7593799788083941,-2.4247676585120197,0.13833793135648748,0.8637381868247447,3.9842905689671,0.0,0.0
1.0821643286573146,0.7124001508780669,-2.3489913965163645,0.15417285989275376,0.7917464268133134,3.6985105260358315,0.0,0.0
1.1022044088176353,0.6668195489625547,-2.27903009577561,0.16883752478585498,0.7332332446550616,4.071470424327858,0.0,0.0
1.122244488977956,0.6227788436158158,-2.2020352673369428,0.18221404884707448,0.6688262030609753,4.225389322494568,0.0,0.0
1.1422845691382766,0.5803336651220669,-2.1222589246874475,0.19430320796397468,0.60445795584501,4.437827314180365,0.0,0.0
1.1623246492985972,0.5395627516027164,-2.0385456759675256,0.2050643854267028,0.5380588731364053,4.669950520937691,0.0,0.0
1.1823647294589177,0.5005528403570582,-1.9504955622829125,0.21443761760924857,0.46866160912728816,4.7114514034689545,0.0,0.0
1.2024048096192383,0.46331689956887934,-1.8617970394089398,0.22246293449589538,0.4012658443323413,4.837955958311222,0.0,0.0
1.222444889779559,0.4279013857049238,-1.7707756931977772,0.2291230746677487,0.3330070085926658,6.629134701995644,0.0,0.0
1.2424849699398797,0.3950003392310621,-1.6450523236930854,0.23344703051977872,0.2161977926015004,5.767538443712943,0.0,0.0
1.2625250501002003,0.36427711577072014,-1.536161173017098,0.23595423289010822,0.1253601185164754,5.170433170446895,0.0,0.0
1.282565130260521,0.33549867966929603,-1.4389218050712043,0.2370005701556863,0.05231686327890277,4.749030934815478,0.0,0.0
1.3026052104208417,0.3085008566380215,-1.349891151563726,0.2368319625391183,-0.008430380828398414,4.2120955221283065,0.0,0.0
1.3226452905811623,0.2830750011390902,-1.271292774946567,0.23575138342240992,-0.0540289558354192,3.7858000688800337,0.0,0.0
1.342685370741483,0.25905576648856166,-1.200961732526427,0.23399307225438684,-0.08791555840115464,3.4279902391117396,0.0,0.0
1.3627254509018036,0.23630462346451575,-1.1375571512022948,0.23174812232834974,-0.11224749630185568,2.5355360481403535,0.0,0.0
1.3827655310621243,0.21447533864899973,-1.0914642407758004,0.22950786313772523,-0.11201295953122586,3.243527753557143,0.0,0.0
1.4028056112224447,0.19384378630392723,-1.0315776172536242,0.22685606213079346,-0.132590050346589,2.9411587585959555,0.0,0.0
1.4228456913827654,0.17429321215690274,-0.9775287073512248,0.22394700101674117,-0.1454530557026138,4.467368417757809,0.0,0.0
1.442885771543086,0.1564179050535831,-0.8937653551659812,0.21989433410862755,-0.2026333454056808,3.544588175101526,0.0,0.0
1.4629258517034067,0.1398603612127217,-0.8278771920430704,0.2151956065453094,-0.2349363781659074,3.1330226420498093,0.0,0.0
1.4829659318637274,0.1244619732635939,-0.7699193974563894,0.21005413291665093,-0.257073681432923,2.7101889213010395,0.0,0.0
1.503006012024048,0.11005981957499134,-0.7201076844301282,0.2046773568776154,-0.268838801951776,2.0535939059746093,0.0,0.0
1.5230460921843687,0.0964000326210059,-0.6829893476992719,0.19940532625356397,-0.263601531202571,1.9139294341345003,0.0,0.0
1.5430861723446894,0.0834297472706198,-0.6485142675193044,0.1942841915709943,-0.256056734128484,1.7574757741890359,0.0,0.0
1.56312625250501,0.07108950634992975,-0.6170120460345023,0.18937085849024396,-0.24566665403751775,2.034282541087559,0.0,0.0
1.5831663326653307,0.05948840975901809,-0.580054829545583,0.18447547567971773,-0.24476914052631155,2.050645700958502,0.0,0.0
1.6032064128256511,0.04863421939141955,-0.542709518379927,0.17955733123895823,-0.24590722203797555,1.9174457464606878,0.0,0.0
1.6232464929859718,0.03847648408143858,-0.5078867654990482,0.17466141878785837,-0.24479562255499218,2.719051782960869,0.0,0.0
1.6432865731462925,0.029328714304368793,-0.4573884888534896,0.16929569629244137,-0.2682861247708504,2.118556179874193,0.0,0.0
1.6633266533066131,0.020958678076480212,-0.418501811394429,0.16377086137035865,-0.27624174610413604,1.5910629490827664,0.0,0.0
1.6833667334669338,0.013162535432960762,-0.3898071321759725,0.15835531004736508,-0.2707775661496785,1.4208309343516046,0.0,0.0
1.7034068136272544,0.005875502441723326,-0.3643516495618718,0.15311278363019212,-0.26212632085864795,1.5062177043859297,0.0,0.0
1.723446893787575,-0.000867690752250576,-0.3371596596986951,0.14796077399467708,-0.25760048177575223,1.2635008687061102,0.0,0.0
1.7434869739478958,-0.007160153135692884,-0.3146231191721154,0.14300676997269762,-0.24770020109897256,1.3800249605922912,0.0,0.0
1.7635270541082164,-0.012955096571283293,-0.2897471717795204,0.13815206012686423,-0.2427354922916699,1.3273991108128755,0.0,0.0
1.783567134268537,-0.01827165689879148,-0.26582801637540937,0.13339630324549423,-0.23778784406849973,1.2227074841157788,0.0,0.0
1.8036072144288577,-0.023149290230782747,-0.24388166659956334,0.12876997026479123,-0.23131664903515062,1.1788609483403458,0.0,0.0
1.8236472945891782,-0.027603781016506585,-0.22272453928619196,0.12426917669196362,-0.2250396786413803,1.3868922728654072,0.0,0.0
1.8436873747494988,-0.031552770250578274,-0.19744946170358435,0.11974481629487745,-0.22621801985430887,1.104354874735928,0.0,0.0
1.8637274549098195,-0.03510510218170752,-0.17761659655646256,0.1153320788492051,-0.2206368722836172,1.3147953270129689,0.0,0.0
1.8837675350701402,-0.03817748821270954,-0.1536193015501009,0.11088087949986616,-0.22255996746694692,0.9099661808773727,0.0,0.0
1.9038076152304608,-0.04092648701473685,-0.1374499401013653,0.10659811733446223,-0.21413810827019678,0.7283553590523772,0.0,0.0
1.9238476953907815,-0.043421701471095656,-0.12476072281794039,0.10256229564799692,-0.2017910843232652,0.7418413507033865,0.0,0.0
1.9438877755511021,-0.04565674059328008,-0.11175195610922108,0.09874013779092222,-0.19110789285373456,0.8062023967990546,0.0,0.0
1.9639278557114228,-0.04760543073158579,-0.09743450691528546,0.09507010257023564,-0.18350176103432916,0.8750025126273517,0.0,0.0
1.9839679358717435,-0.04923990346017547,-0.08172363642948394,0.09148898455171176,-0.17905590092619447,0.9699885835728791,0.0,0.0
2.004008016032064,-0.05052209725564676,-0.06410968977356454,0.08791885629031831,-0.178506413069672,1.0183350775550135,0.0,0.0
2.024048096192385,-0.05143213650723469,-0.045501962579396385,0.08430897429460454,-0.18049409978568823,1.2196513013148396,0.0,0.0
2.0440881763527052,-0.05189046843940245,-0.02291659660838811,0.0805192000736065,-0.18948871104990253,1.0820198063230202,0.0,0.0
2.064128256513026,-0.05194968064796159,-0.002960610427957408,0.0766057047361547,-0.19567476687258945,0.830362167558613,0.0,0.0
2.0841683366733466,-0.05170680831875165,0.012143616460496953,0.07269041374531966,-0.1957645495417519,0.8539068670685124,0.0,0.0
2.1042084168336674,-0.05115154789296432,0.027763021289366443,0.06873484653238603,-0.1977783606466816,0.7910693041266752,0.0,0.0
2.124248496993988,-0.05030727882506185,0.04221345339512335,0.06475065063871939,-0.19920979468333214,0.6734662821177675,0.0,0.0
2.1442885771543083,-0.049218738438972745,0.054427019304455156,0.06078127417925848,-0.1984688229730454,0.5206836072518727,0.0,0.0
2.164328657314629,-0.04794439646725946,0.0637170985856643,0.05689083453696867,-0.1945219821144902,0.4400869852597793,0.0,0.0
2.1843687374749496,-0.04651458771213673,0.07149043775613649,0.053101846282570496,-0.18944941271990867,0.3538014866806129,0.0,0.0
2.2044088176352705,-0.04496189689563959,0.07763454082485698,0.04944080691933872,-0.1830519681615889,0.2532099801588881,0.0,0.0
2.224448897795591,-0.04332452823909138,0.0818684328274106,0.045943397258744974,-0.17487048302968736,0.4902245633606222,0.0,0.0
2.244488977955912,-0.04150901180764078,0.09077582157253003,0.04244909811562038,-0.1747149571562297,0.4614342459712249,0.0,0.0
2.2645290581162323,-0.03952558141252384,0.0991715197558469,0.03895268198577879,-0.1748208064920796,0.3444909077587415,0.0,0.0
2.284569138276553,-0.03741886612402258,0.10533576442506307,0.035500435041752515,-0.17261234720131372,0.19731074479153898,0.0,0.0
2.3046092184368736,-0.03524530775445846,0.10867791847820614,0.032156617596951834,-0.167190872240034,0.17065968223721684,0.0,0.0
2.3246492985971945,-0.03301435125557508,0.11154782494416882,0.02891573146328182,-0.16204430668350067,0.13754958265398748,0.0,0.0
2.344689378757515,-0.030737990986202147,0.11381801346864653,0.025776705290179697,-0.1569513086551062,0.07376299689246413,0.0,0.0
2.3647294589178354,-0.02844022041013039,0.11488852880358781,0.022757049962203277,-0.15098276639882105,-0.027452773538620773,0.0,0.0
2.3847695390781563,-0.026159672609856542,0.1140273900136924,0.019896922308165033,-0.14300638270191224,-0.06053322383317658,0.0,0.0
2.4048096192384767,-0.02390843935347703,0.11256166281897559,0.017197643419750917,-0.13496394442070578,-0.08867387247260258,0.0,0.0
2.4248496993987976,-0.021696730496405435,0.11058544285357974,0.014658659337742155,-0.12694920410043814,-0.11235046120649608,0.0,0.0
2.444889779559118,-0.0195330594665553,0.10818355149250683,0.012277815247703192,-0.11904220450194816,-0.13730323146221884,0.0,0.0
2.464929859719439,-0.017426482635457704,0.10532884155487972,0.010054699160754611,-0.1111558043474291,-0.15229856362129973,0.0,0.0
2.4849699398797593,-0.015382215644177856,0.10221334956399235,0.007984068440616542,-0.10353153600690346,-0.16118651245467516,0.0,0.0
2.50501002004008,-0.013403134290530163,0.0989540676823847,0.006058068489915582,-0.096299997535048,-0.16645569905731084,0.0,0.0
2.5250501002004007,-0.01149074343884752,0.09561954258413216,0.004267638949830876,-0.08952147700423527,-0.1812703853586506,0.0,0.0
2.5450901803607215,-0.00965031150215032,0.09202159683486007,0.0026101573476919084,-0.08287408010694838,-0.19101368029166338,0.0,0.0
2.565130260521042,-0.007885165859847712,0.08825728211513038,0.0010808723873315278,-0.07646424801801903,-0.20066853632388082,0.0,0.0
2.5851703406813624,-0.006198635999192172,0.08432649303277698,-0.00032421106698376015,-0.0702541727157644,-0.20607041292132555,0.0,0.0
2.6052104208416833,-0.004592427285197169,0.08031043569975015,-0.001610793231986617,-0.06432910825014285,-0.209336141494263,0.0,0.0
2.6252505010020037,-0.003067445393051365,0.0762490946072902,-0.0027850769689080853,-0.05871418684607341,-0.3039933715428422,0.0,0.0
2.6452905811623246,-0.0016602914574342176,0.07035769678085738,-0.0037990958534382313,-0.0507009442265073,-0.29461395524975165,0.0,0.0
2.665330661322645,-0.00036701468647487253,0.06466383854796726,-0.00466473159303073,-0.04328178697962491,-0.2563041785594136,0.0,0.0
2.685370741482966,0.0008275825645414926,0.059729862550818254,-0.005409853506570162,-0.03725609567697163,-0.23282602697504712,0.0,0.0
2.7054108216432864,0.001932875709140717,0.05526465722996121,-0.006052894804536663,-0.03215206489832504,-0.1942491666555568,0.0,0.0
2.7254509018036073,0.0029641027828841357,0.05156135368717095,-0.006620476997475798,-0.028379109646956786,-0.20724980290075182,0.0,0.0
2.7454909819639277,0.003916353348346351,0.04761252827311075,-0.00710857482228053,-0.02440489124023657,-0.19044417095389363,0.0,0.0
2.7655310621242486,0.004796325330285676,0.043998599096966275,-0.007530097188658803,-0.021076118318913706,-0.18428070312286027,0.0,0.0
2.785571142284569,0.005606544724963466,0.04051096973388948,-0.007891307888310566,-0.0180605349825881,-0.1818582498426503,0.0,0.0
2.8056112224448895,0.006348060399514991,0.03707578372757626,-0.008195902010693425,-0.015229706119142952,-0.17745519413777416,0.0,0.0
2.8256513026052104,0.007022677866583853,0.03373087335344307,-0.00844837613143363,-0.012623706037010294,-0.18054665963693212,0.0,0.0
2.845691382765531,0.007629263151442808,0.030329264242947747,-0.00864851419143771,-0.010006903000204055,-0.17464741662030078,0.0,0.0
2.8657314629258517,0.008170175664576418,0.02704562565668051,-0.008801029171844808,-0.007625749020354856,-0.16911793605570352,0.0,0.0
2.885771543086172,0.008647616870448077,0.023872060293582943,-0.00891011740378494,-0.0054544115970065876,-0.13739080114032876,0.0,0.0
2.905811623246493,0.009073998729710509,0.0213190929631216,-0.00899502556565201,-0.004245408093353527,-0.17819105308560762,0.0,0.0
2.9258517034068134,0.009433424356132146,0.017971281321081806,-0.009032423172516195,-0.0018698803432092691,-0.14473433007425615,0.0,0.0
2.9458917835671343,0.00973896008087543,0.015276786237164148,-0.00904211646556712,-0.00048466465254626235,-0.17163329022073648,0.0,0.0
2.9659318637274548,0.009980112070494948,0.0120575994809759,-0.009008432135248347,0.0016842165159386365,-0.13076530582191404,0.0,0.0
2.9859719438877756,0.01017281832634965,0.009635312792735105,-0.008955063320189303,0.0026684407529522346,-0.1868056655281714,0.0,0.0
3.006012024048096,0.01029519526839646,0.006118847102340412,-0.008848892833935447,0.005308524312692766,-0.11067944880457892,0.0,0.0
3.0260521042084165,0.010376918720032132,0.004086172581783598,-0.00873378089874974,0.005755596759285349,-0.19187537093784923,0.0,0.0
3.0460921843687374,0.010386271095702712,0.0004676187835289799,-0.008561506195419035,0.008613735166535212,-0.11602891675902617,0.0,0.0
3.066132264529058,0.010352800105183614,-0.0016735495259549101,-0.008375348515274068,0.009307884007248355,-0.18218175088804153,0.0,0.0
3.0861723446893787,0.010250637957148688,-0.005108107401746309,-0.008135437781844609,0.01199553667147299,-0.0833411053351421,0.0,0.0
3.106212424849699,0.010118285875233151,-0.006617604095776886,-0.00789807789838434,0.011867994173013366,-0.15050462507256557,0.0,0.0
3.12625250501002,0.009929466988431494,-0.00944094434008284,-0.007622484560492546,0.01377966689458971,-0.0836168740522653,0.0,0.0
