time,x,x_dot,theta,theta_dot,u,x_ref,theta_ref
0.0,0.9045041998541601,-0.09661943710427137,0.1923204271077103,0.04492084242476008,9.999999999999968,0.0,0.0
0.02004008016032064,0.906410049050487,0.09529245981634676,0.18869434706057656,-0.18130400235668756,9.999999999999998,0.0,0.0
0.04008016032064128,0.9121555884985061,0.287276972400949,0.18051675846083276,-0.40887942998719,9.999999999999996,0.0,0.0
0.06012024048096192,0.9217442899359032,0.4794350718698529,0.16772666393381214,-0.6395047263510318,9.999999999999948,0.0,0.0
0.08016032064128256,0.9351815612538632,0.6718635658980028,0.15022928323240928,-0.8748690350701427,8.43074755016319,0.0,0.0
0.1002004008016032,0.9518632348305829,0.8340836788359861,0.12880259778518574,-1.0713342723611774,6.466801360766383,0.0,0.0
0.12024048096192384,0.9710317865525034,0.9584275860960283,0.10443360139309624,-1.2184498196044748,6.643391459500945,0.0,0.0
0.1402805611222445,0.9927640279598883,1.0866120703692432,0.07685498183212706,-1.3789309780484587,4.824154076666557,0.0,0.0
0.16032064128256512,1.0163588828099372,1.1797427425024534,0.04694360996958023,-1.4955685931273415,1.640194543517687,0.0,0.0
0.18036072144288576,1.0405822950342607,1.2111706112161729,0.016366783686005432,-1.52884131417874,-0.46546899912756023,0.0,0.0
0.2004008016032064,1.0646201286392625,1.2018916802500916,-0.01383571351524501,-1.5101248600625221,-9.999999944094919,0.0,0.0
0.22044088176352705,1.0847591058778228,1.0069488619280156,-0.03827543904982289,-1.2219862767288943,-0.09820414519532861,0.0,0.0
0.24048096192384769,1.104869609900302,1.005525201123961,-0.06289737679221727,-1.231096887119719,-7.1063067473727575,0.0,0.0
0.2605210420841683,1.1222239664905336,0.8677178295115777,-0.08376520743564783,-1.0433915321715277,-0.36533975564922994,0.0,0.0
0.280561122244489,1.1394579404560925,0.8616986982779439,-0.10494486601664484,-1.0589829290498503,-9.999999999920362,0.0,0.0
0.3006012024048096,1.1528203288143342,0.6681194179120833,-0.12096826282307797,-0.8011698403216567,-1.141789454679703,0.0,0.0
0.32064128256513025,1.165770425591489,0.6475048388577375,-0.137087241790234,-0.8059489483578013,-3.2931823253690555,0.0,0.0
0.3406813627254509,1.177474210585048,0.5851892496779572,-0.15215849739662504,-0.7535627803195528,-3.261222325045129,0.0,0.0
0.3607214428857715,1.1879487115210468,0.5237250467999435,-0.16629895660356409,-0.7070229603469528,-3.0358078071541508,0.0,0.0
0.3807615230460922,1.1972860185722447,0.46686535255989414,-0.17973093760766995,-0.6715990502052936,-3.4089856611048868,0.0,0.0
0.4008016032064128,1.2053448799623858,0.4029430695070527,-0.1923277995323308,-0.6298430962330428,-3.8128384969970486,0.0,0.0
0.42084168336673344,1.2119719967387894,0.3313558388201788,-0.203941185505084,-0.5806692986376599,-6.416512840196692,0.0,0.0
0.4408817635270541,1.21615806172501,0.2093032493110319,-0.2131612510073242,-0.4610032751120101,-6.092139849654861,0.0,0.0
0.4609218436873747,1.218032767377853,0.09373528264215296,-0.22023800429996065,-0.35383766463182315,-6.1360441775529955,0.0,0.0
0.48096192384769537,1.2175817180599044,-0.02255246589743333,-0.22519627130739975,-0.2479133503719549,-5.646043093214094,0.0,0.0
0.501002004008016,1.2149973351328884,-0.12921914635080076,-0.22834945550175642,-0.1576592097178331,-5.455638580940389,0.0,0.0
0.5210420841683366,1.2103548235556219,-0.2321255788633324,-0.22982768929737085,-0.07391168978072123,-5.212593542855987,0.0,0.0
0.5410821643286573,1.2037492290734568,-0.33027972410824613,-0.2297792011929152,0.002424405222783088,-4.965202322879958,0.0,0.0
0.561122244488978,1.1952767340583956,-0.4236247507530628,-0.22834407507199103,0.07175630604620827,-4.351122576182518,0.0,0.0
0.5811623246492986,1.1851755974170548,-0.5050568320670445,-0.22586108001986013,0.12414975260654482,-3.650815849870704,0.0,0.0
0.6012024048096192,1.1737172876681468,-0.5729154874453996,-0.222711247501898,0.1574916258981073,-4.462812668431896,0.0,0.0
0.6212424849699398,1.1605850836798821,-0.6566101994132314,-0.2184120476031882,0.2149599949354901,-3.822047462514231,0.0,0.0
0.6412825651302605,1.1460267506739588,-0.72791665029617,-0.21329906059428697,0.255649350445061,-4.188063005929742,0.0,0.0
0.6613226452905812,1.1298983028468923,-0.8064223913533259,-0.20712964465265168,0.3084707970817646,-3.4352563983518607,0.0,0.0
0.6813627254509018,1.1124905901682784,-0.8703856339306952,-0.20029199733144346,0.34188236606041195,-3.377915366633743,0.0,0.0
0.7014028056112224,1.0938238053208578,-0.9333392423710312,-0.1927737815117229,0.3759107909860284,-3.091557310972487,0.0,0.0
0.721442885771543,1.0740070695810466,-0.9908367869905598,-0.1846894470071689,0.40421672522769864,-2.990322507720048,0.0,0.0
0.7414829659318637,1.053077334401897,-1.046486758957474,-0.17604416723108016,0.4322639888044378,-2.851109326363719,0.0,0.0
0.7615230460921844,1.031086188761493,-1.0995572820202042,-0.16686151625393547,0.4591325488572349,-2.7010750349359944,0.0,0.0
0.781563126252505,1.0080893045925539,-1.1498442084469596,-0.15716812899805555,0.48466936279399564,-2.313740976435412,0.0,0.0
0.8016032064128256,0.9842346695610227,-1.1927317515765568,-0.14712454124788943,0.5021793875083057,-1.918671070652235,0.0,0.0
0.8216432865731462,0.9596732737592256,-1.228069790089854,-0.13689435676293057,0.5115092242479432,-2.9231012070068894,0.0,0.0
0.8416833667334669,0.934010761066684,-1.2831256346270823,-0.1258308969082176,0.5531729927356478,-1.8645736692745474,0.0,0.0
0.8617234468937875,0.9076563789175153,-1.3177191074584393,-0.11447595493483964,0.5677470986688986,-2.5691047360622243,0.0,0.0
0.8817635270541082,0.8803321991098638,-1.3662089903825738,-0.10234797033690349,0.6063992298968073,-1.546422014998384,0.0,0.0
0.9018036072144289,0.8524334029576994,-1.3949398076082216,-0.08996348792168832,0.6192241207607585,-1.9082574681888609,0.0,0.0
0.9218436873747494,0.823815355317172,-1.4309023820263695,-0.07703310447332123,0.6465191724183543,-1.2427063317498344,0.0,0.0
0.9418837675350701,0.7947339376056588,-1.454070885575657,-0.06386238417993098,0.658536014669513,-1.6395425896816014,0.0,0.0
0.9619238476953907,0.7650306284353177,-1.4851654585170562,-0.05013633100198732,0.686302658897183,-0.9580947104927007,0.0,0.0
0.9819639278557114,0.7349673981281436,-1.5031615153587026,-0.03616590538377254,0.6985212809107392,-0.9713203674306577,0.0,0.0
1.002004008016032,0.7045351817870313,-1.5216108170556124,-0.021855184496240757,0.7155360443765892,-0.6176905263147239,0.0,0.0
1.0220440881763526,0.673867978908981,-1.5333601439025168,-0.007320706083988557,0.7267239206126099,0.20974613462772307,0.0,0.0
1.0420841683366733,0.6432846469867359,-1.5291665961122543,0.007045029362764799,0.7182867723376678,0.8826953476895264,0.0,0.0
1.062124248496994,0.6130438161755987,-1.5120415405568624,0.020938745334334874,0.6946857985785037,1.1600316615446076,0.0,0.0
1.0821643286573146,0.5832498427127579,-1.4896986731420372,0.03428577472048286,0.6673514693073992,1.5670506258197467,0.0,0.0
1.1022044088176353,0.5540577995309894,-1.4596021590884267,0.04693243790550243,0.6323331592509788,1.7868935235823904,0.0,0.0
1.122244488977956,0.5255498718595506,-1.4253963835719412,0.05883038715364303,0.5948974624070298,2.198709726874462,0.0,0.0
1.1422845691382766,0.49788330726791125,-1.3833282295819689,0.06981476927947222,0.54921910629146,2.185364597825421,0.0,0.0
1.1623246492985972,0.4710496965460913,-1.3416805360909965,0.07996346404120344,0.5074347380865606,2.273762011097303,0.0,0.0
1.1823647294589177,0.44508054211334375,-1.298457721637379,0.08928981598197759,0.46631759703870723,2.358910097139612,0.0,0.0
1.2024048096192383,0.42000629595230965,-1.2537123080517059,0.09780398743603476,0.42570857270285845,1.8502261738289196,0.0,0.0
1.222444889779559,0.3956260618669817,-1.2190117042663973,0.10585657533029091,0.4026293947128081,3.1679069588021944,0.0,0.0
1.2424849699398797,0.37245126158916275,-1.1587400138909474,0.11273314363878438,0.343828415424673,3.67205961521554,0.0,0.0
1.2625250501002003,0.3506763183979963,-1.0887471595583236,0.11818561282372134,0.2726234592468475,3.6795990560672873,0.0,0.0
1.282565130260521,0.3303024355425533,-1.0186941427721512,0.12224533698462585,0.20298620804522566,3.299183781269542,0.0,0.0
1.3026052104208417,0.31118002552711804,-0.9561205007717632,0.1251595904110546,0.14571267132143678,2.6176937831929266,0.0,0.0
1.3226452905811623,0.29304253539796754,-0.9068745064575251,0.1273424960163749,0.109145280266016,1.9142618177374213,0.0,0.0
1.342685370741483,0.27561512446807557,-0.8713705464945972,0.12921585248624645,0.09366782349357686,2.372802282778199,0.0,0.0
1.3627254509018036,0.2590759593258396,-0.8269582571117989,0.13052597657493187,0.06550620443427128,2.3666094274277034,0.0,0.0
1.3827655310621243,0.24342223088842116,-0.7826864218709222,0.13128490325848355,0.0379463341775834,2.12945070057632,0.0,0.0
1.4028056112224447,0.22856127968744938,-0.7430475600485882,0.13163489263717326,0.017499468934485698,2.222546504475567,0.0,0.0
1.4228456913827654,0.21452928351900863,-0.7015998084220375,0.13152427452829804,-0.005530905443760871,2.6689267405163335,0.0,0.0
1.442885771543086,0.20150024441138403,-0.6514519553812292,0.13069379930803296,-0.041523761013253474,2.816091580211241,0.0,0.0
1.4629258517034067,0.1895317683831296,-0.5984238014127214,0.12905284688443552,-0.08204762117987202,1.994794560956532,0.0,0.0
1.4829659318637274,0.17830425077391696,-0.5613758804606318,0.12706664122387937,-0.09931028302780812,1.5547161411756782,0.0,0.0
1.503006012024048,0.16764674774013694,-0.5328751516890002,0.1249775142016293,-0.10445635111250372,1.1542701447764845,0.0,0.0
1.5230460921843687,0.1574037752408098,-0.5121486249663562,0.1230043248786273,-0.09865946615010011,0.9948181720691485,0.0,0.0
1.5430861723446894,0.14751373849296975,-0.49450183739200293,0.12122705235620007,-0.08886362612136131,2.049617625690086,0.0,0.0
1.56312625250501,0.13838830825815393,-0.4562715117407912,0.11902262464120017,-0.11022138574999539,1.4015115024645715,0.0,0.0
1.5831663326653307,0.12977548899862815,-0.4306409629762896,0.11675296299625001,-0.11348308224750807,0.862178075747565,0.0,0.0
1.6032064128256511,0.12146568028822892,-0.4154904355199616,0.11471668278282597,-0.10181401067120203,1.9120784397175317,0.0,0.0
1.6232464929859718,0.11386876026670908,-0.37984600107599187,0.11229139671811368,-0.12126430323561423,2.1852197258646906,0.0,0.0
1.6432865731462925,0.10709193214890844,-0.3388414058900321,0.10930295892912054,-0.14942188944965754,2.294840953096207,0.0,0.0
1.6633266533066131,0.10117882543971467,-0.295655335459689,0.10566849676124512,-0.18172310839377037,2.125359317354375,0.0,0.0
1.6833667334669338,0.09606444405011505,-0.25571906947998124,0.10146316113967986,-0.2102667810782633,1.8869542502342893,0.0,0.0
1.7034068136272544,0.09165707447398776,-0.22036847880636468,0.09679862927349436,-0.23322659330927506,1.3727622603743943,0.0,0.0
1.723446893787575,0.08775757513452732,-0.19497496697302158,0.0919442644561522,-0.24271824086710853,1.0126005448292983,0.0,0.0
1.7434869739478958,0.08422689076876565,-0.17653421828808402,0.08707889168167697,-0.2432686387237616,0.865845209180997,0.0,0.0
1.7635270541082164,0.08100917505608657,-0.1608857856339536,0.08225719441265243,-0.2410848634512271,0.8114927731601671,0.0,0.0
1.783567134268537,0.07808460170254504,-0.14622866767707632,0.07748036937284809,-0.23884125199021716,0.7498178939987525,0.0,0.0
1.8036072144288577,0.07543047454404526,-0.1327063579249888,0.0727541893174149,-0.23630900277165984,0.5827024592809681,0.0,0.0
1.8236472945891782,0.07298295191800365,-0.12237613130208091,0.06814626572091188,-0.23039617982515057,0.30539774004351733,0.0,0.0
1.8436873747494988,0.07063516733608338,-0.11738922909601361,0.06378931542502536,-0.21784751479432596,0.33888950446238486,0.0,0.0
1.8637274549098195,0.06840141659701895,-0.11168753695322128,0.05963636161250615,-0.20764769062596064,0.3249110532644059,0.0,0.0
1.8837675350701402,0.0662774227650848,-0.10619969159670735,0.05566940285680408,-0.19834793778510332,0.2756350773007256,0.0,0.0
1.9038076152304608,0.06424508692292433,-0.10161679210802381,0.051892218535563,-0.1888592160620539,0.2403184377164028,0.0,0.0
1.9238476953907815,0.06229170262228026,-0.09766921503220341,0.048301639011591214,-0.17952897619858943,0.1693825641490154,0.0,0.0
1.9438877755511021,0.060390613748971866,-0.09505444366541957,0.044916482659177026,-0.1692578176207095,0.193850438923731,0.0,0.0
1.9639278557114228,0.05855232879277381,-0.09191424780990268,0.04170112943868179,-0.16076766102476178,0.12718143694859468,0.0,0.0
1.9839679358717435,0.05675175034580524,-0.09002892234842859,0.03867427939102624,-0.1513425023827774,0.09533748716244764,0.0,0.0
2.004008016032064,0.054977315063426395,-0.08872176411894236,0.035835474470218426,-0.14194024604039057,0.09681945693309109,0.0,0.0
2.024048096192385,0.053230409775050024,-0.08734526441881862,0.03316596275636306,-0.13347558569276807,-0.031568326748026274,0.0,0.0
2.0440881763527052,0.05146169935989113,-0.0884355207579448,0.030723978651335217,-0.12209920525139231,0.0043377104813474565,0.0,0.0
2.064128256513026,0.04968588996944055,-0.08879046952252888,0.02847314708698783,-0.11254157821736925,-0.030828320536783672,0.0,0.0
2.0841683366733466,0.04788990174858818,-0.08979941104261852,0.026419847525743216,-0.10266497806223081,0.019428423212517885,0.0,0.0
2.1042084168336674,0.046093931054003945,-0.08979853472921204,0.024521755311312798,-0.09490461072152089,-0.05580436464719558,0.0,0.0
2.124248496993988,0.044269163591178655,-0.09123837314126458,0.022810901710018962,-0.08554268006469185,0.040316135842376526,0.0,0.0
2.1442885771543083,0.04245359526130515,-0.09077841649367524,0.021220294315634228,-0.07953036971923663,-0.009561924532804973,0.0,0.0
2.164328657314629,0.04062821786482467,-0.09126886982402391,0.01976907605668073,-0.07256091294767496,-0.05338289248873246,0.0,0.0
2.1843687374749496,0.03877634678723572,-0.09259355387944772,0.018473727731115615,-0.06476741627825583,-0.018472815761927587,0.0,0.0
2.2044088176352705,0.03691197490980736,-0.09321859387141776,0.017305667191412598,-0.058403026985150895,0.0030533314980979026,0.0,0.0
2.224448897795591,0.03504383630166091,-0.09340693040732231,0.016244941061749524,-0.05303630648315364,-0.18233022689094464,0.0,0.0
2.244488977955912,0.03309989445796717,-0.09719709218468725,0.01539329016269972,-0.04258254495249024,-0.1779159676408708,0.0,0.0
2.2645290581162323,0.03108211539990239,-0.1008889529032389,0.014742765231409176,-0.032526246564527225,-0.17246706008821855,0.0,0.0
2.284569138276553,0.028992811430231098,-0.10446519848356453,0.014286079178387064,-0.022834302651105594,-0.06803920475120444,0.0,0.0
2.3046092184368736,0.026872863029944426,-0.10599742001433356,0.013959273193847585,-0.016340299226973942,0.11843181340680002,0.0,0.0
2.3246492985971945,0.024795128557202874,-0.10388672363707757,0.013651218628335215,-0.015402728275618458,0.04479543536464453,0.0,0.0
2.344689378757515,0.022730961850980277,-0.1032083353111299,0.01340304355710887,-0.012408753561317269,0.11292307841097662,0.0,0.0
2.3647294589178354,0.02070701883727879,-0.10119715068507436,0.013173334361780944,-0.011485459766396247,0.035256132388897896,0.0,0.0
2.3847695390781563,0.01869305806436725,-0.1006980386455769,0.013006071041521903,-0.008363166012952044,0.12490991727648604,0.0,0.0
2.4048096192384767,0.016724112257362554,-0.09844729035023471,0.012847758930458147,-0.00791560555318781,0.09578590348414513,0.0,0.0
2.4248496993987976,0.014788861977871456,-0.09676251397455489,0.012714434826252594,-0.006666205210277601,0.04885511144406841,0.0,0.0
2.444889779559118,0.012869032030317678,-0.09599149737768888,0.01263270870750335,-0.00408630593746219,0.05528538851400214,0.0,0.0
2.464929859719439,0.010967155060518319,-0.09509384848996792,0.012598304046497517,-0.0017202330502916587,0.06740006640375691,0.0,0.0
2.4849699398797593,0.009087968332875326,-0.09395933638214962,0.012603917779956713,0.0002806866729598281,0.11005775702292007,0.0,0.0
2.50501002004008,0.007248116187397664,-0.09199260727388314,0.012624633961921322,0.001035809098230419,0.1219531504163399,0.0,0.0
2.5250501002004007,0.005452234525257093,-0.08979408310702854,0.012653625378668893,0.0014495708373786034,0.1255457209794777,0.0,0.0
2.5450901803607215,0.003701716935363314,-0.08752587949468896,0.012688973493350113,0.0017674057340610187,0.12100064621534246,0.0,0.0
2.565130260521042,0.001994779700520965,-0.08534686174211745,0.012733559726181865,0.00222931164158753,0.13118724960754563,0.0,0.0
2.5851703406813624,0.0003353850728569313,-0.08296973138320168,0.012781706911952675,0.0024073592885405265,0.13750436954599923,0.0,0.0
2.6052104208416833,-0.0012740156723693517,-0.08047003726131415,0.012830023683942721,0.0024158385995023514,0.13420093712765555,0.0,0.0
2.6252505010020037,-0.0028347254542598773,-0.07803548909452628,0.012880746987584634,0.002536165182095599,0.03829837632809552,0.0,0.0
2.6452905811623246,-0.004384182036707751,-0.07747282912239367,0.012990291826832487,0.005477241962392682,0.07764478734356836,0.0,0.0
2.665330661322645,-0.005907062998954156,-0.07614404811232024,0.013136334555700456,0.007302136443398393,0.12159595095687374,0.0,0.0
2.685370741482966,-0.007386259515428232,-0.0739598258237038,0.013294088375839818,0.007887691006968097,0.1506622456346978,0.0,0.0
2.7054108216432864,-0.008810474519369624,-0.07121075019706957,0.01344754683660837,0.0076729230384276394,0.17338778023314427,0.0,0.0
2.7254509018036073,-0.01017088401977924,-0.06802047502048081,0.013584385275485687,0.0068419219438658665,0.16362620266700256,0.0,0.0
2.7454909819639277,-0.0114713364156886,-0.065022619795468,0.01371117636401763,0.006339554426597132,0.18791145694118752,0.0,0.0
2.7655310621242486,-0.012702391443885774,-0.06155275140985865,0.013814515034374593,0.0051669335178481475,0.1876228162570986,0.0,0.0
2.785571142284569,-0.013864191364959925,-0.05808999605370755,0.013895221866095686,0.0040353415860546245,0.20317636917730325,0.0,0.0
2.8056112224448895,-0.014950690001257603,-0.05432493181488392,0.013944708462748564,0.002474329832643861,0.19669535112967212,0.0,0.0
2.8256513026052104,-0.01596443056833547,-0.05068702835389335,0.013967077743246684,0.0011184640249060395,0.19321745028722376,0.0,0.0
2.845691382765531,-0.01690677662832682,-0.04711730299956742,0.013964505044335971,-0.000128634945535644,0.20160004402730028,0.0,0.0
2.8657314629258517,-0.017774456384106428,-0.043383987788980484,0.013932071093542584,-0.0016216975396693587,0.20234257967670297,0.0,0.0
2.885771543086172,-0.018567170784348597,-0.039635720012108445,0.013869137012965205,-0.0031467040288688957,0.20486677219819643,0.0,0.0
2.905811623246493,-0.019283916793618044,-0.03583730046347229,0.013773829449985502,-0.004765378148985226,0.20201844345907913,0.0,0.0
2.9258517034068134,-0.019925778562705183,-0.03209308845435695,0.013647213305919084,-0.006330807203320918,0.19713698995994317,0.0,0.0
2.9458917835671343,-0.02049462463376184,-0.028442303552832914,0.013491345219649524,-0.007793404313477965,0.19784784357747864,0.0,0.0
2.9659318637274548,-0.020990132928454273,-0.02477541473462154,0.013304826340316064,-0.009325943966673045,0.19202505939160866,0.0,0.0
2.9859719438877756,-0.02141452214283332,-0.02121946071895225,0.013089886116559417,-0.010747011187832368,0.18372354320435627,0.0,0.0
3.006012024048096,-0.021770970080322576,-0.017822396874462857,0.01285002461654956,-0.011993075000492898,0.19156977149917562,0.0,0.0
3.0260521042084165,-0.022056346208379256,-0.014268806402833957,0.012579139658993436,-0.01354424787780615,0.1778432174878813,0.0,0.0
3.0460921843687374,-0.022275929259820006,-0.010979152572037442,0.012283551724396987,-0.014779396729822482,0.175704270462888,0.0,0.0
3.066132264529058,-0.022430469156324274,-0.00772699482521339,0.011962647708222732,-0.01604520080871278,0.16502623832263355,0.0,0.0
3.0861723446893787,-0.022524040701078055,-0.004678577237689065,0.011620649582677965,-0.01709990627723837,0.1637573706450482,0.0,0.0
3.106212424849699,-0.02255704099118388,-0.0016500145052911084,0.011256142659419396,-0.01822534616292848,0.1548716779428453,0.0,0.0
