time,x,x_dot,theta,theta_dot,u,x_ref,theta_ref
0.0,1.6224171067612483,-0.08455464135765137,-0.09097209763254491,0.024370096449226608,8.192385082787784,0.0,0.0
0.02004008016032064,1.623946883701996,0.07648884703737863,-0.09582686195252008,-0.24273821599875822,6.2583336126845115,0.0,0.0
0.04008016032064128,1.6279443633432233,0.19987398206137488,-0.10492614519375788,-0.45496416206189005,5.100489753835397,0.0,0.0
0.06012024048096192,1.6339600007849204,0.30078187208485785,-0.11764958542203052,-0.6361720114136321,2.9308218201921474,0.0,0.0
0.08016032064128256,1.641150623091497,0.35953111532882565,-0.13281197986270069,-0.758119722033508,-4.787164530560169,0.0,0.0
0.1002004008016032,1.646511652721899,0.26805148152010194,-0.1460340072759285,-0.66110137066139,2.4520498552647823,0.0,0.0
0.12024048096192384,1.652868020290881,0.3178183784491016,-0.16158732412237237,-0.7776658423221938,-3.230457475015136,0.0,0.0
0.1402805611222445,1.6580096946385792,0.2570837173849086,-0.17628887305414298,-0.7350774465885302,-0.0440216208345201,0.0,0.0
0.16032064128256512,1.6631817637707003,0.25860345660605677,-0.1920658532185356,-0.7888490082196308,-4.8561276715981965,0.0,0.0
0.18036072144288576,1.6665151358787602,0.1666686054030012,-0.2062589093244011,-0.7096528052932756,-4.746294439349208,0.0,0.0
0.2004008016032064,1.6680573201108866,0.07710921160631569,-0.2190272446036866,-0.6384167639642748,-5.451743807078263,0.0,0.0
0.22044088176352705,1.6675382721625764,-0.02595239741550301,-0.23005629281153603,-0.5514524103924706,-6.050726566691538,0.0,0.0
0.24048096192384769,1.6647290681263534,-0.1404602018111562,-0.23908269485295058,-0.45132010207072804,-4.986579558433833,0.0,0.0
0.2605210420841683,1.6600466591196512,-0.23412045033510287,-0.24677249976307267,-0.3844902455061039,-6.509382899685767,0.0,0.0
0.280561122244489,1.652902054958172,-0.35723020807395556,-0.252318576865235,-0.2773038551081162,-5.403830600751054,0.0,0.0
0.3006012024048096,1.6437269075226475,-0.4587573717762353,-0.2563841472353792,-0.20327851850721168,-5.426569671076461,0.0,0.0
0.32064128256513025,1.6325138599235212,-0.5606523799563189,-0.2589847787096694,-0.13003157371450907,-5.637705477143209,0.0,0.0
0.3406813627254509,1.619181869705177,-0.6665995109172138,-0.2600198373379953,-0.051752931416293724,-5.602143583094848,0.0,0.0
0.3607214428857715,1.6037451535470462,-0.7718358079065449,-0.2595166407625156,0.02515982877398129,-5.235123898709917,0.0,0.0
0.3807615230460922,1.5863460931308402,-0.8699530208102956,-0.2576782153735119,0.09192126945018621,-5.213757973418813,0.0,0.0
0.4008016032064128,1.5669923622433939,-0.9676865443723144,-0.2545038579137964,0.15871787298577336,-5.039580735611336,0.0,0.0
0.42084168336673344,1.545750523658928,-1.0620919292233009,-0.2500697347673422,0.22170615732271304,-4.962940635935304,0.0,0.0
0.4408817635270541,1.522648835666873,-1.1550843996027456,-0.24438852496749694,0.28406048999226136,-4.052194994048429,0.0,0.0
0.4609218436873747,1.4980392446365558,-1.2304795515158606,-0.23793589553418878,0.32263147166540734,-3.0106266056269533,0.0,0.0
0.48096192384769537,1.4723244953921564,-1.2857374622199664,-0.23125827299188237,0.3338811271153214,-4.417552684153442,0.0,0.0
0.501002004008016,1.4449557061216363,-1.368439463526001,-0.22351401652312117,0.3872128234380599,-3.218439351177725,0.0,0.0
0.5210420841683366,1.4163965807084207,-1.4279562706607802,-0.21533229107569932,0.409086272371093,-2.763710974745788,0.0,0.0
0.5410821643286573,1.3868215090607852,-1.478753582381771,-0.20691837732631085,0.4206956874694226,-4.994484490950481,0.0,0.0
0.561122244488978,1.3553602033746746,-1.5730652843055295,-0.19694445791546844,0.49869597054212134,-3.475500698923299,0.0,0.0
0.5811623246492986,1.3226003558771267,-1.637992374877396,-0.18621141510832206,0.5366521403573188,-1.0381107472053208,0.0,0.0
0.6012024048096192,1.2894874049406277,-1.6556475468249479,-0.17604612500367525,0.5082645052323411,-5.332811109971869,0.0,0.0
0.6212424849699398,1.2543465428788283,-1.7570431030899678,-0.16391702365918517,0.6064550672245034,-3.5980135372571285,0.0,0.0
0.6412825651302605,1.2178492598792823,-1.8248641499773015,-0.15074074001849805,0.6588141820343563,-3.752672012032125,0.0,0.0
0.6613226452905812,1.179931213819806,-1.8959023029738142,-0.13634124585636645,0.7199747081065802,-3.4218704912557842,0.0,0.0
0.6813627254509018,1.14071683909812,-1.9607187360843,-0.1208152129190101,0.7763016468678179,-2.789063540596546,0.0,0.0
0.7014028056112224,1.1004480959238208,-2.013437158714961,-0.10442836022818927,0.8193426345410408,-2.0284414995932707,0.0,0.0
0.721442885771543,1.0594167584257776,-2.0515668749021607,-0.08751709869314192,0.8455630767523673,-2.2357126501166857,0.0,0.0
0.7414829659318637,1.017537199838941,-2.0939779293418286,-0.06985278950222815,0.8832154595456886,-1.2442309384938812,0.0,0.0
0.7615230460921844,0.9751911710867182,-2.117301437611145,-0.05190106154112785,0.8975863980550146,-1.8622247514870958,0.0,0.0
0.781563126252505,0.9321326284806701,-2.1529271303023987,-0.033187519344315845,0.9356771098406002,-1.4332587460429513,0.0,0.0
0.8016032064128256,0.8885237742374487,-2.1804427121610748,-0.013844464478754578,0.9671527432780633,-0.6525231335463862,0.0,0.0
0.8216432865731462,0.8446640071415717,-2.192988354793846,0.005793336530153893,0.9818900504454235,2.420452455772572,0.0,0.0
0.8416833667334669,0.8017472098061851,-2.1458398667693315,0.024051633453052872,0.912914846144949,3.233934189504544,0.0,0.0
0.8617234468937875,0.7600858244358856,-2.0830692685149734,0.04056985459342495,0.8259110570186037,3.2130362285833636,0.0,0.0
0.8817635270541082,0.7196670238328079,-2.0209400301538842,0.05546523185135461,0.7447688628964828,2.986785453710204,0.0,0.0
0.9018036072144289,0.6803982205102886,-1.9634401661259602,0.06896510644808931,0.6749937298367354,2.778797481150773,0.0,0.0
0.9218436873747494,0.6421943138986705,-1.9101953305809056,0.08127736881751553,0.6156131184713105,2.727630808514161,0.0,0.0
0.9418837675350701,0.6050317037457352,-1.858130507646764,0.0925109018985335,0.5616766540508984,2.701252028713684,0.0,0.0
0.9619238476953907,0.568896753897661,-1.806747492403711,0.10275334403128618,0.5121221066376337,2.5909108475398135,0.0,0.0
0.9819639278557114,0.533743368711942,-1.7576692592859573,0.11213487013667542,0.46907630526946215,2.5772388619287177,0.0,0.0
1.002004008016032,0.49956340520714826,-1.7089981752396832,0.12072390153056263,0.42945156969436055,2.5474053341718053,0.0,0.0
1.0220440881763526,0.4663426530638509,-1.6610376071648663,0.12859317137712167,0.3934634923279525,3.3281854644526065,0.0,0.0
1.0420841683366733,0.4343830618966626,-1.5979795583594163,0.13534106584441138,0.337394723364485,2.9408297346254315,0.0,0.0
1.062124248496994,0.40353156195550804,-1.5425749970577285,0.14123593444393362,0.29474342997611114,2.823249149313478,0.0,0.0
1.0821643286573146,0.37374052227464155,-1.4895519840433247,0.14638412726627156,0.2574096411168976,2.8462241524992815,0.0,0.0
1.1022044088176353,0.34501731851372186,-1.4361601880459853,0.1508058190208428,0.22108458772856204,2.7044995768427995,0.0,0.0
1.122244488977956,0.31730538115588014,-1.385596867892086,0.15461159336268615,0.19028871709216777,2.6992522371338943,0.0,0.0
1.1422845691382766,0.2906015086169401,-1.3351936269470022,0.15782917373645514,0.1608790186884499,2.6755916785740186,0.0,0.0
1.1623246492985972,0.2648955063915354,-1.2853001112702342,0.16049308619915256,0.13319562313487116,2.5559147860789264,0.0,0.0
1.1823647294589177,0.2401399518873785,-1.2377777252078463,0.16268959433045535,0.10982540656513883,2.5337148631417765,0.0,0.0
1.2024048096192383,0.21632553728731427,-1.1907207300032119,0.16444570964504807,0.08780576572963536,2.405887388714565,0.0,0.0
1.222444889779559,0.1934019505733826,-1.1461793356965826,0.16584642076254355,0.07003555587477368,2.62372163255778,0.0,0.0
1.2424849699398797,0.17145360990221772,-1.0974170335582443,0.1667753424651792,0.04644608513178262,2.40467217896117,0.0,0.0
1.2625250501002003,0.15039492681827263,-1.0529341541972546,0.1673646052231789,0.029463137899984473,2.312890726950115,0.0,0.0
1.282565130260521,0.13018998239114904,-1.0102472213561795,0.16767084659032416,0.015312068357263066,2.2020339496743326,0.0,0.0
1.3026052104208417,0.11079551427756232,-0.9697234056793362,0.16775984979170594,0.004450160069089156,2.1725157474451344,0.0,0.0
1.3226452905811623,0.09220000066952848,-0.929775680401692,0.16764917799326642,-0.005533589921975763,2.2498673912354263,0.0,0.0
1.342685370741483,0.07443359691700131,-0.8883201876263581,0.1672935968599046,-0.017779056668090945,2.3918917529359964,0.0,0.0
1.3627254509018036,0.05755171655249489,-0.844094018225321,0.16660906377986132,-0.03422665400216474,2.46430879713699,0.0,0.0
1.3827655310621243,0.04158276412111543,-0.798447621568973,0.165549470722268,-0.05297965287966523,2.4688698699536396,0.0,0.0
1.4028056112224447,0.026528830736709298,-0.7526966692203066,0.164105345267241,-0.0722062727513507,2.4619082151619023,0.0,0.0
1.4228456913827654,0.012387634756286616,-0.707059799021134,0.16227136562705027,-0.09169898200953636,2.083444035645297,0.0,0.0
1.442885771543086,-0.000987683047386374,-0.6687658901836495,0.16025374932890313,-0.10088081490735729,2.0127041784872572,0.0,0.0
1.4629258517034067,-0.013624087510395448,-0.6318202231504537,0.1580803261515914,-0.10867115886558683,1.971777846956051,0.0,0.0
1.4829659318637274,-0.025536888385924883,-0.5956400437764718,0.15576076834563507,-0.11597789029781605,1.94808234800562,0.0,0.0
1.503006012024048,-0.03673464249375879,-0.5598877053916952,0.15329389162439283,-0.12334383606211206,1.8124530105719154,0.0,0.0
1.5230460921843687,-0.047269469640115205,-0.5267413573178209,0.15074218023772096,-0.12758556933359397,1.9042464230085865,0.0,0.0
1.5430861723446894,-0.057104872558296556,-0.4917701459090675,0.14803633714985812,-0.13529215439314188,1.7378723339127542,0.0,0.0
1.56312625250501,-0.06630488594334401,-0.4600006692523728,0.14525515894179977,-0.13905891040291662,1.6260050922887748,0.0,0.0
1.5831663326653307,-0.07491229532415591,-0.43037046904059567,0.14244555360788796,-0.14048026669559055,1.524732982526018,0.0,0.0
1.6032064128256511,-0.08296575592000877,-0.40267302979264247,0.13964818343516586,-0.13986850863610534,1.6536299128839897,0.0,0.0
1.6232464929859718,-0.09041424093495869,-0.3724242507474958,0.1367706991144375,-0.14387421603641756,1.2475797270412978,0.0,0.0
1.6432865731462925,-0.0974151576118188,-0.3500458338430058,0.13402975316379565,-0.13704729753209305,1.805585140108319,0.0,0.0
1.6633266533066131,-0.10375026772555834,-0.3167555056869772,0.13108491929108881,-0.1472416936353422,1.101005660991667,0.0,0.0
1.6833667334669338,-0.10969331607615032,-0.2971524175295991,0.1283254961390066,-0.13797115760411147,1.4966452874829914,0.0,0.0
1.7034068136272544,-0.11508932234156466,-0.2698003132707167,0.12550477987912861,-0.1410358129938995,1.3668027515595225,0.0,0.0
1.723446893787575,-0.11998808541151974,-0.244938153497754,0.12268010010891005,-0.14123398851092836,1.4206992434641093,0.0,0.0
1.7434869739478958,-0.12436778823664951,-0.2189851412564887,0.1198022657913303,-0.1438917158789875,1.3300207273232922,0.0,0.0
1.7635270541082164,-0.12826295223858059,-0.1947582000965532,0.11690559801142499,-0.1448333889952656,1.290218411456443,0.0,0.0
1.783567134268537,-0.1316882640458597,-0.17126559036395622,0.11399481155639556,-0.14553932275147125,1.3100961012469148,0.0,0.0
1.8036072144288577,-0.13463514063303053,-0.14734382935854076,0.1110398964080119,-0.14774575741918264,1.298045497251898,0.0,0.0
1.8236472945891782,-0.137107432119115,-0.12361457430422355,0.10802909639767175,-0.15054000051700764,1.3463853376729527,0.0,0.0
1.8436873747494988,-0.1390854262297763,-0.09889970553306549,0.10491521328063977,-0.15569415585159913,1.3256743374740125,0.0,0.0
1.8637274549098195,-0.14057630114670092,-0.07454374584623182,0.10169050866394322,-0.1612352308348274,1.2347659662708412,0.0,0.0
1.8837675350701402,-0.14161457549061005,-0.05191371719545659,0.09838736960628176,-0.16515695288307305,1.189810009770198,0.0,0.0
1.9038076152304608,-0.1422168301241369,-0.03011273167634341,0.09501099456607319,-0.16881875201042876,1.0570312072852404,0.0,0.0
1.9238476953907815,-0.14243387444619968,-0.01085221610313792,0.0916172454600961,-0.1696874552988547,1.0109679568712118,0.0,0.0
1.9438877755511021,-0.14228270087441888,0.0075586785890390945,0.08821144955022305,-0.1702897954936529,0.9763246413803048,0.0,0.0
1.9639278557114228,-0.14177584568830287,0.025342759305800617,0.08479222492118359,-0.1709612314519728,0.9371847496572935,0.0,0.0
1.9839679358717435,-0.14092759559763915,0.04241250453318583,0.08136073645565713,-0.17157442327632313,0.8553822779180988,0.0,0.0
2.004008016032064,-0.1397688745296692,0.057936053398496605,0.0779429470037817,-0.1708894725937715,0.7370121850973606,0.0,0.0
2.024048096192385,-0.13834487629117184,0.07119991192486795,0.07458625231781442,-0.16783473429836387,0.7798244824915345,0.0,0.0
2.0440881763527052,-0.13663794411487676,0.08534660881475414,0.07124448798466838,-0.1670882166573016,0.7553378358471229,0.0,0.0
2.064128256513026,-0.13465667457166638,0.09906347716051812,0.06791081974647169,-0.1666834119098347,0.7043864440187051,0.0,0.0
2.0841683366733466,-0.13241999025194393,0.11183421598612359,0.06459391074441587,-0.16584545010279067,0.6442409144488966,0.0,0.0
2.1042084168336674,-0.1299504061973461,0.12347920272989066,0.061307909508362186,-0.16430006180268386,0.556720006853484,0.0,0.0
2.124248496993988,-0.12728112714320855,0.13346395270687778,0.05808315498015857,-0.16123772641018086,0.5527099106740547,0.0,0.0
2.1442885771543083,-0.12441279723852536,0.14341649523415986,0.054901637608011845,-0.15907586860733638,0.49095611911751835,0.0,0.0
2.164328657314629,-0.12136860032514692,0.15220984566892223,0.05177933966253375,-0.1561148972739048,0.39691552311774736,0.0,0.0
2.1843687374749496,-0.11818433481291918,0.1592132756113867,0.04875148786683323,-0.15139258978502593,0.35318510113310775,0.0,0.0
2.2044088176352705,-0.11487619883493114,0.16540679889940174,0.04582453328239231,-0.14634772922204609,0.3699501449489727,0.0,0.0
2.224448897795591,-0.11143681628925632,0.17196912728374064,0.04297022407294615,-0.14271546047230807,0.609512441782214,0.0,0.0
2.244488977955912,-0.10777190116113498,0.18324575640606658,0.04003056877701135,-0.14698276479674022,0.6029155967843095,0.0,0.0
2.2645290581162323,-0.1038831839795212,0.19443585908068867,0.03699085875776628,-0.15198550096225308,0.49565152500851173,0.0,0.0
2.284569138276553,-0.0998116455475349,0.20357692159931506,0.03389459645545698,-0.15481311511546517,0.35715711221258706,0.0,0.0
2.3046092184368736,-0.09561043814821427,0.21006036996603125,0.0308032014449713,-0.15456975052428382,0.16988967611493894,0.0,0.0
2.3246492985971945,-0.09135174875212852,0.21293446980428737,0.02780665924206811,-0.14982711014515965,0.21983591790053608,0.0,0.0
2.344689378757515,-0.08701523218157227,0.2168258285278128,0.024856874270631626,-0.14748924857182422,0.17453488985959778,0.0,0.0
2.3647294589178354,-0.08261772171910216,0.2198755231235055,0.021961735940342016,-0.1447569165144805,-0.0077524037902394205,0.0,0.0
2.3847695390781563,-0.07822952016249,0.21941007783060762,0.019209592856450252,-0.13760715419458816,-0.07987761491573489,0.0,0.0
2.4048096192384767,-0.07387798567329788,0.2175767244596063,0.01662528079116236,-0.12921560326439457,-0.10006325833996751,0.0,0.0
2.4248496993987976,-0.06957025671759659,0.2153864477850647,0.01420431799992961,-0.1210481395616375,0.15009341035343485,0.0,0.0
2.444889779559118,-0.06520802507946415,0.21811158190662197,0.011785126906339767,-0.12095955467949214,0.2126693174248076,0.0,0.0
2.464929859719439,-0.060766179514855606,0.22209227823042715,0.009315849462175698,-0.1234638722082035,0.10464816643805167,0.0,0.0
2.4849699398797593,-0.056286165092062496,0.22400072113965558,0.006844099163149918,-0.12358751495128896,-0.044778867964319735,0.0,0.0
2.50501002004008,-0.051825584155533025,0.2230290468264734,0.0044416980564566545,-0.12012005533466316,-0.2607764341095842,0.0,0.0
2.5250501002004007,-0.04746803672071469,0.21787737174091704,0.002219849930878807,-0.11109240627889236,-0.29305352666217427,0.0,0.0
2.5450901803607215,-0.04322548212437263,0.21212772981710268,0.00018342745386816257,-0.10182112385053221,-0.22085545068456086,0.0,0.0
2.565130260521042,-0.0390691636219008,0.20781592512359182,-0.0017226438006046466,-0.09530356272364046,-0.2969188478232256,0.0,0.0
2.5851703406813624,-0.035028217101647025,0.20204732601268888,-0.003465888245818849,-0.08716222226071013,-0.23397862782322035,0.0,0.0
2.6052104208416833,-0.03107758213183223,0.19753174849073982,-0.005094117445629269,-0.08141145999052099,-0.29679067301127265,0.0,0.0
2.6252505010020037,-0.027241302923755453,0.19181396040383877,-0.006580856940576993,-0.0743369747473862,-0.06579209458758972,0.0,0.0
2.6452905811623246,-0.023428811877547775,0.19062455231038383,-0.008070608242506055,-0.07448756509645311,-0.29243167851844143,0.0,0.0
2.665330661322645,-0.019728122402007026,0.18503447377703747,-0.009440192415787632,-0.0684792086640788,-0.1113513821423111,0.0,0.0
2.685370741482966,-0.016068179988901414,0.1829971206552806,-0.010804169730082587,-0.06819886571474773,-0.20809278006982562,0.0,0.0
2.7054108216432864,-0.012486344482974369,0.17909177529635228,-0.01211455429915019,-0.06551922845338014,-0.22874664100269557,0.0,0.0
2.7254509018036073,-0.008990299833446128,0.17480223247641197,-0.013367529744251861,-0.06264877225508357,-0.2702415092508659,0.0,0.0
2.7454909819639277,-0.0055958789889958265,0.1697210422225151,-0.014546727945779199,-0.05895991007636688,-0.2564634423512363,0.0,0.0
2.7655310621242486,-0.002297367325485566,0.16492558317551304,-0.01566764576590136,-0.056045891006108114,-0.30503518183989753,0.0,0.0
2.785571142284569,0.0008866029463119643,0.1591985135898765,-0.016708944335903936,-0.0520649285001288,-0.29722989359577906,0.0,0.0
2.8056112224448895,0.003959376262113129,0.1536386657900582,-0.017681757579516993,-0.04864066218065281,-0.3318388360001402,0.0,0.0
2.8256513026052104,0.0069077266315846165,0.1474175184735744,-0.018571980514044944,-0.0445111467263975,-0.3309037578318284,0.0,0.0
2.845691382765531,0.009732274325957215,0.1412273847186299,-0.019385776196236094,-0.04068978410955746,-0.39808877385587904,0.0,0.0
2.8657314629258517,0.012407036181699959,0.1337380927871372,-0.020088985678147417,-0.03516047409556616,-0.456212144025837,0.0,0.0
2.885771543086172,0.014909533462309686,0.1251248640304864,-0.02065205331536103,-0.028153381860680688,-0.38987307419727035,0.0,0.0
2.905811623246493,0.01726581430604919,0.11781404218697526,-0.02111732962856023,-0.023263815659959948,-0.43615070649898113,0.0,0.0
2.9258517034068134,0.019457954112025527,0.10960699029881688,-0.021460686150600775,-0.017167826102027356,-0.400195370252036,0.0,0.0
2.9458917835671343,0.021500081718450203,0.10210638032123379,-0.021705317040688746,-0.012231544504398603,-0.3874975254943893,0.0,0.0
2.9659318637274548,0.023397222213063576,0.0948570247306686,-0.021860191831568034,-0.007743739543964501,-0.3884189177677674,0.0,0.0
2.9859719438877756,0.025149060515605403,0.08759191512709129,-0.021925748923131896,-0.0032778545781930405,-0.40528727107594,0.0,0.0
3.006012024048096,0.02674903321012077,0.0799986347257684,-0.021892537160902115,0.0016605881114889953,-0.363132304475259,0.0,0.0
3.0260521042084165,0.02821358016408885,0.07322734769840397,-0.021784999755776076,0.00537687025630186,-0.34640067762998616,0.0,0.0
3.0460921843687374,0.02954919941658985,0.06678096262505018,-0.02161224311585964,0.008637831995821752,-0.34103642319243255,0.0,0.0
3.066132264529058,0.030757934608097972,0.06043675957540601,-0.021376314411687757,0.011796435208594207,-0.3184602519056754,0.0,0.0
3.0861723446893787,0.03184852757305249,0.054529648247726,-0.021088928172116574,0.01436931197855911,-0.27056707938214886,0.0,0.0
3.106212424849699,0.03283958443727463,0.049552843211107145,-0.020776280475895255,0.015632384811066,-0.2950085736554841,0.0,0.0
3.12625250501002,0.03372147814916356,0.04409468559444647,-0.020422105085821304,0.01770876950369749,-0.260626205955761,0.0,0.0
