time,x,x_dot,theta,theta_dot,u,x_ref,theta_ref
0.0,1.6784095495074207,-0.08567547863869712,0.16923254160087547,-0.09285068780555153,10.0,0.0,0.0
0.02004008016032064,1.6805427624012588,0.10666064469190184,0.16268115203158076,-0.3275694784647359,9.99999999999998,0.0,0.0
0.04008016032064128,1.686525379206996,0.2991308402868662,0.15138721011829864,-0.564697095664106,9.999999999951637,0.0,0.0
0.06012024048096192,1.696362052310873,0.49183365519383715,0.13526807935237595,-0.8059565382961351,9.99999999999973,0.0,0.0
0.08016032064128256,1.7100592598987174,0.6848603793922254,0.11420708621944174,-1.0530496566467105,9.999999999999996,0.0,0.0
0.1002004008016032,1.7276250681130025,0.8782904107142581,0.08805425657550886,-1.3076414821966444,9.045915946148938,0.0,0.0
0.12024048096192384,1.7486966706520102,1.0535801269503848,0.05718314817824362,-1.543555419863262,8.872421248397721,0.0,0.0
0.1402805611222445,1.7732160015090985,1.2259665428544144,0.021487969068600968,-1.7847589554821324,2.047195478076895,0.0,0.0
0.16032064128256512,1.7985293526398811,1.2656675565391269,-0.015270961113749294,-1.8379465091175131,-6.244611208919603,0.0,0.0
0.18036072144288576,1.8214093052552014,1.143997630766012,-0.048472232418338014,-1.660063565229436,0.35651873788321975,0.0,0.0
0.2004008016032064,1.844439621840379,1.1515158292588754,-0.08218337122503358,-1.6855569403347779,1.1500236346352444,0.0,0.0
0.22044088176352705,1.8679373775657313,1.174887786267623,-0.11707525868894263,-1.7445943731954523,-7.196186198336562,0.0,0.0
0.24048096192384769,1.8886560821297849,1.0359352282026777,-0.1485160932301025,-1.5720417270579945,-1.3881015764364708,0.0,0.0
0.2605210420841683,1.908868735518802,1.0106326694508607,-0.18007620043591643,-1.5780053602906967,-5.704021262584793,0.0,0.0
0.280561122244489,1.9269024481501926,0.9016856315695293,-0.20947523193772938,-1.4699515750906467,-4.335912658756625,0.0,0.0
0.3006012024048096,1.9432988869309207,0.8198219390364051,-0.23769550136902118,-1.4110134715645892,-9.999999999999945,0.0,0.0
0.32064128256513025,1.9558650413836365,0.628307722635786,-0.26171903606227065,-1.2011767346624724,-6.095635392946662,0.0,0.0
0.3406813627254509,1.9661281494491334,0.5131554032748421,-0.28392817455496155,-1.1104569246345453,-9.8941799030708,0.0,0.0
0.3607214428857715,1.9726222577835857,0.32470541672261033,-0.3023596834822182,-0.9215754463628322,-6.521239820983588,0.0,0.0
0.3807615230460922,1.976664054891257,0.20208985538356522,-0.3190316026589515,-0.8335959588366636,-9.072866605321423,0.0,0.0
0.4008016032064128,1.977271203349132,0.030357422893749236,-0.3326576685409181,-0.681303294098332,-7.382415165317953,0.0,0.0
0.42084168336673344,1.975104683023573,-0.10832601627794855,-0.34427272619652205,-0.5807528827801973,-9.999999995207082,0.0,0.0
0.4408817635270541,1.9691562495459742,-0.29742167387994156,-0.352534458887143,-0.4130866345310491,-9.999999999999995,0.0,0.0
0.4609218436873747,1.9594302190835486,-0.48630152312127894,-0.3575105610657215,-0.24880510892892294,-9.99999991061781,0.0,0.0
0.48096192384769537,1.9459292722044241,-0.6750473439562305,-0.35924200996956474,-0.0865724451921622,-9.999999424343658,0.0,0.0
0.501002004008016,1.9286544590185295,-0.8637406592947341,-0.35774324411909264,0.07493829252360609,-9.832908460285527,0.0,0.0
0.5210420841683366,1.9076698259963463,-1.0492316511091606,-0.3530929725149851,0.23251358020537655,-8.838045976095623,0.0,0.0
0.5410821643286573,1.8833580884453913,-1.2155868775477423,-0.34579489785707196,0.3649037328956591,-7.99571251504639,0.0,0.0
0.561122244488978,1.8560419761898181,-1.365805612778664,-0.3362514189160021,0.4771739470534946,-6.967986008459128,0.0,0.0
0.5811623246492986,1.8261153690119065,-1.496330358895581,-0.32495269396652354,0.5649362474739255,-5.891980152209431,0.0,0.0
0.6012024048096192,1.7939906760123145,-1.6062346499795996,-0.3124074439170857,0.6272625024718913,-4.761206926389567,0.0,0.0
0.6212424849699398,1.760101696822705,-1.694448959480479,-0.2991515260428534,0.6627958937116152,-6.288950875630057,0.0,0.0
0.6412825651302605,1.7238517958496742,-1.8124950486515454,-0.2842454326750134,0.7453046683919982,-5.80653069078023,0.0,0.0
0.6613226452905812,1.6854226844839215,-1.9214555682876286,-0.2678515670639225,0.8196932805545463,-5.133817828946273,0.0,0.0
0.6813627254509018,1.6450697637045864,-2.017646038966757,-0.2502318551967042,0.8809855933609126,-4.46127220409203,0.0,0.0
0.7014028056112224,1.603048437960413,-2.1010662872086656,-0.23164414067620595,0.929385726024913,-3.9551546398302797,0.0,0.0
0.721442885771543,1.5595495809467605,-2.1749428506826263,-0.21224974914444383,0.9697195765881061,-3.260551476397125,0.0,0.0
0.7414829659318637,1.5148374714520225,-2.2356054747369,-0.1923153344758047,0.9967207334319561,-2.1930164959316993,0.0,0.0
0.7615230460921844,1.469321806939419,-2.275783225630177,-0.1723217018853952,0.9996816295204748,-2.4655433365155135,0.0,0.0
0.781563126252505,1.4228910687526857,-2.3215369093366602,-0.15198424730290253,1.016872729124633,-2.173770488610388,0.0,0.0
0.8016032064128256,1.3756532633740477,-2.3618902689318984,-0.13134056923402931,1.0321839034436608,-1.8420193519617742,0.0,0.0
0.8216432865731462,1.3277320043935605,-2.3960629490243606,-0.11045075835409493,1.0444905439967191,-1.6428404967992307,0.0,0.0
0.8416833667334669,1.2791992656112818,-2.4266369391139317,-0.08929761220516048,1.0576573074467224,-1.6287457707825481,0.0,0.0
0.8617234468937875,1.230054817216397,-2.45722241974424,-0.06775517328783674,1.077121945866187,-1.3020467145128503,0.0,0.0
0.8817635270541082,1.1804202696847326,-2.4817273765832217,-0.04587757760166794,1.09387978430844,-0.9612845955758373,0.0,0.0
0.9018036072144289,1.1304227207263324,-2.4998774479200088,-0.023725889540195673,1.1075844030736133,-0.5225004539889606,0.0,0.0
0.9218436873747494,1.0802275169363467,-2.509760189499283,-0.0014173958207921757,1.1154246859701749,0.39255699006960065,0.0,0.0
0.9418837675350701,1.0301858709641456,-2.5020822986100506,0.020652576194738086,1.103498600776513,1.328393575084438,0.0,0.0
0.9619238476953907,0.9806571553401227,-2.4764357812011455,0.042075149906290146,1.0711286855776032,2.7778783505052917,0.0,0.0
0.9819639278557114,0.9322011970116617,-2.4227979164230478,0.06213819040522959,1.003152024946972,2.2762241241113728,0.0,0.0
1.002004008016032,0.8846166889232896,-2.379225404418608,0.08126230264375703,0.956205611926372,2.863124772906498,0.0,0.0
1.0220440881763526,0.8381271769150832,-2.3244756004103206,0.0992273619670869,0.898252966166493,3.7743513794510886,0.0,0.0
1.0420841683366733,0.7930827818410707,-2.252219753700622,0.1156188920330202,0.8195765032966654,3.6669344093537513,0.0,0.0
1.062124248496994,0.7494366253162205,-2.1823078262425124,0.13060627016206378,0.7493689064521782,3.592335565357697,0.0,0.0
1.0821643286573146,0.7071550140483904,-2.1140805633915027,0.1443308355756836,0.6862282706809919,3.7919932867632142,0.0,0.0
1.1022044088176353,0.6663114851628095,-2.0421764442790495,0.15676723338679985,0.6218198905558122,3.6987134211985175,0.0,0.0
1.122244488977956,0.6268657744211673,-1.972285537082107,0.16805135629625464,0.56420614547274,4.038336821965371,0.0,0.0
1.1422845691382766,0.5889465761504264,-1.8959599135370435,0.17806226068973668,0.5005452196741016,4.02057613905078,0.0,0.0
1.1623246492985972,0.5525437316111749,-1.8201422269625789,0.1868768274491561,0.4407283379709702,4.280709966639554,0.0,0.0
1.1823647294589177,0.5177556327637741,-1.7394049423700355,0.19440470181216613,0.3763937181505017,4.2026693241513415,0.0,0.0
1.2024048096192383,0.48454941213406477,-1.6603110314854668,0.2007411136518937,0.3168205919863794,4.168639402764403,0.0,0.0
1.222444889779559,0.45290973304281457,-1.581983954562509,0.20594805174374572,0.26034690459260035,5.417507336934315,0.0,0.0
1.2424849699398797,0.4233207291570867,-1.4794501942863947,0.20934754254178034,0.16997453990173014,5.119750034393599,0.0,0.0
1.2625250501002003,0.395665327002684,-1.382770107720136,0.21113295663318904,0.08927070457043465,4.491583605581685,0.0,0.0
1.282565130260521,0.36969853164643435,-1.2983397678124804,0.21167474217247084,0.027089276964090768,3.90344254345161,0.0,0.0
1.3026052104208417,0.34519137549732504,-1.2253578074554663,0.21131187572627166,-0.018143322309958597,3.1535421335664315,0.0,0.0
1.3226452905811623,0.32185227490598894,-1.1669550295668054,0.21046948545445698,-0.04211951359073389,2.7472316509795105,0.0,0.0
1.342685370741483,0.29952343617580507,-1.1164419365091949,0.2093737450044742,-0.054787022499138915,2.9365493870770876,0.0,0.0
1.3627254509018036,0.2782788271043071,-1.0622304535748983,0.2079095501355135,-0.073209743448036,2.9326466903257398,0.0,0.0
1.3827655310621243,0.25811736825899695,-1.0080729422655077,0.2060695737151722,-0.09199882101706358,2.2196348636106373,0.0,0.0
1.4028056112224447,0.23876222501396072,-0.9677571622518112,0.20424883269099567,-0.0910370512088271,2.3813435574428885,0.0,0.0
1.4228456913827654,0.2202768298963845,-0.9242697558788104,0.20234329103092727,-0.09527708300342058,4.753860887198933,0.0,0.0
1.442885771543086,0.20358482573164183,-0.8346002082371331,0.19898512938088636,-0.1679080825020458,3.463718263464977,0.0,0.0
1.4629258517034067,0.18818532764884296,-0.7699749041399433,0.19488925243964983,-0.20479384706182674,3.315671727793858,0.0,0.0
1.4829659318637274,0.1740220009408288,-0.708166335400708,0.19011335452687592,-0.23879489563869524,2.7782621998966546,0.0,0.0
1.503006012024048,0.16088715933820041,-0.6567420801314194,0.18493392159141225,-0.25897164677318274,2.378267936805439,0.0,0.0
1.5230460921843687,0.14862665025590263,-0.6130254541148897,0.17954670659112612,-0.2693607500143065,1.8299656345550166,0.0,0.0
1.5430861723446894,0.13702858366598444,-0.5799033294959091,0.17423182752155802,-0.2657439534784045,1.3436289027337838,0.0,0.0
1.56312625250501,0.12590509543026246,-0.5561744117860989,0.16923496751913467,-0.24984300012116806,1.333799180435226,0.0,0.0
1.5831663326653307,0.1152537281235959,-0.532568365333328,0.16453021907381357,-0.23523742226605485,1.4856184572041868,0.0,0.0
1.6032064128256511,0.105134906103524,-0.5059411010035955,0.1600004098755546,-0.2264904599129485,1.2355570446209352,0.0,0.0
1.6232464929859718,0.0954524968055962,-0.48412046489639016,0.15576095486368374,-0.21197275059354334,2.732925772790575,0.0,0.0
1.6432865731462925,0.08679095770479298,-0.43307695504016086,0.15092128352162965,-0.24198356710270547,2.187997899708534,0.0,0.0
1.6633266533066131,0.07893945955446044,-0.3925749075166266,0.14576461266556973,-0.25783354280299664,1.844767591986013,0.0,0.0
1.6833667334669338,0.07176578833247638,-0.3586835610992033,0.14045614266489553,-0.26542350003370924,1.6026022518204528,0.0,0.0
1.7034068136272544,0.0651771158508609,-0.3294336240807735,0.1351020137854931,-0.2677064439701207,1.3348093470676865,0.0,0.0
1.723446893787575,0.05907061375442757,-0.30532510482166675,0.12982315828739538,-0.2639427749048864,1.1901269697443964,0.0,0.0
1.7434869739478958,0.05339138716131393,-0.28396132965568177,0.12466992212518616,-0.25766180811046097,1.115379906894079,0.0,0.0
1.7635270541082164,0.04811175427911533,-0.2639816441099303,0.11965302387384344,-0.25084491256713587,1.0508816524749642,0.0,0.0
1.783567134268537,0.04320798718068619,-0.24518835492145696,0.11477815146617597,-0.24374362038337372,1.0395608318358496,0.0,0.0
1.8036072144288577,0.03867704752292637,-0.22654698288799113,0.11002105862925932,-0.2378546418458323,1.0052938087913117,0.0,0.0
1.8236472945891782,0.03450692060988294,-0.2085063456521714,0.10537157123362884,-0.23247436978152403,0.6944276753906954,0.0,0.0
1.8436873747494988,0.030577713189470668,-0.19646037102061356,0.10098098607286937,-0.21952925803797294,0.3360992613651162,0.0,0.0
1.8637274549098195,0.026750930623645718,-0.19133912829124747,0.09703003111552136,-0.19754774786740062,0.42139822751522815,0.0,0.0
1.8837675350701402,0.023060930366671936,-0.18450001284868905,0.09344428127426069,-0.17928749206303346,0.4288764647565268,0.0,0.0
1.9038076152304608,0.019511628890826065,-0.17746507379229357,0.09019684566520637,-0.16237178045271544,0.5182568221409752,0.0,0.0
1.9238476953907815,0.016138792620109706,-0.1686418135358179,0.08721526070972298,-0.14907924777416984,0.6675599300746106,0.0,0.0
1.9438877755511021,0.01300149019131941,-0.1568651214395148,0.08439379360282803,-0.14107335534474721,0.7194471482359925,0.0,0.0
1.9639278557114228,0.010120758534825011,-0.14403658282471987,0.08168441665951594,-0.13546884716560476,0.7915743428506333,0.0,0.0
1.9839679358717435,0.007525500300471135,-0.1297629117176938,0.07902799469674687,-0.13282109813845303,0.7804045264453839,0.0,0.0
2.004008016032064,0.005212116821593704,-0.11566917394387155,0.07641425462584465,-0.13068700354511104,0.7937181015336536,0.0,0.0
2.024048096192385,0.003186547637826038,-0.10127845918838328,0.07381892011152043,-0.12976672571621137,1.532460918621371,0.0,0.0
2.0440881763527052,0.0017376970531509893,-0.07244252923375244,0.07079479277573043,-0.15120636678949959,1.2573229597731304,0.0,0.0
2.064128256513026,0.0007591214864100073,-0.0489287783370491,0.06748312536523875,-0.16558337052458463,1.0465602772509757,0.0,0.0
2.0841683366733466,0.00016956326135604343,-0.029477911252698195,0.06398587578330536,-0.1748624790966692,0.9360390872554518,0.0,0.0
2.1042084168336674,-7.308437904117538e-05,-0.01213238201986094,0.060345394990571115,-0.18202403963671246,0.6728081997833456,0.0,0.0
2.124248496993988,-7.046622492641239e-05,0.00013090770573814976,0.05669230865010113,-0.18265431702349924,0.7940648925856362,0.0,0.0
2.1442885771543083,0.0002257693858511187,0.014811780538876553,0.05293274249145625,-0.1879783079322439,0.5533434216173388,0.0,0.0
2.164328657314629,0.0007227852464951681,0.024850793032202473,0.049183520516787066,-0.18746109873345915,0.5467702968112014,0.0,0.0
2.1843687374749496,0.0014190885244825813,0.03481516389937065,0.04542481734736294,-0.1879351584712061,0.42083091938352996,0.0,0.0
2.2044088176352705,0.0022666169588365587,0.04237642171769886,0.04170649127742241,-0.18591630349702656,0.2921823102653826,0.0,0.0
2.224448897795591,0.0032162369226409306,0.047480998190218594,0.03808026659676828,-0.18131123403270646,0.45822802579376465,0.0,0.0
2.244488977955912,0.004333771365488541,0.0558767221423805,0.03442622803506327,-0.18270192808525085,0.3073750891532637,0.0,0.0
2.2645290581162323,0.005561404423851556,0.06138165291815077,0.030809502322137708,-0.18083628564627796,0.20661526313655934,0.0,0.0
2.284569138276553,0.0068608532596044665,0.06497244178764552,0.02726618939786654,-0.1771656462135583,0.16410517956592144,0.0,0.0
2.3046092184368736,0.008216542227836122,0.0677844484115828,0.02379880550477926,-0.17336919465436415,0.04658532938031712,0.0,0.0
2.3246492985971945,0.009583604447486028,0.06835311098249529,0.02045421358764978,-0.16722959585647398,-0.055686116313523826,0.0,0.0
2.344689378757515,0.01092308719702691,0.06697413747704406,0.017271143660516994,-0.1591534963566392,-0.11354036652877518,0.0,0.0
2.3647294589178354,0.012213323580523211,0.06451181917481505,0.01426337197994339,-0.15038858402868016,-0.16522192931440483,0.0,0.0
2.3847695390781563,0.013435005518089006,0.06108409687828968,0.011442170685232563,-0.14106006473554134,-0.2053014424188783,0.0,0.0
2.4048096192384767,0.01457329925811187,0.056914687001143244,0.00881320184910053,-0.13144844180660167,-0.1999461773247968,0.0,0.0
2.4248496993987976,0.015631046157147985,0.052887344951805665,0.006356761707859719,-0.12282200706204052,-0.43929643998877266,0.0,0.0
2.444889779559118,0.016515548482552444,0.044225116270222874,0.004197375025381166,-0.10796933412392763,-0.520503129783257,0.0,0.0
2.464929859719439,0.017195735027300138,0.03400932723738469,0.002368932966461119,-0.09142210294600234,-0.41122917350025073,0.0,0.0
2.4849699398797593,0.017714770659790855,0.025951781624535875,0.0007959862259022113,-0.07864733702794538,-0.42835936902137245,0.0,0.0
2.50501002004008,0.0180664212448701,0.017582529253962274,-0.0005213623734043377,-0.06586742996532745,-0.3420412260690974,0.0,0.0
2.5250501002004007,0.018284747827489307,0.010916329130960318,-0.001641913605172245,-0.056027561588395364,-0.31555520587232205,0.0,0.0
2.5450901803607215,0.018380407098902676,0.004782963570668382,-0.002588227464172147,-0.0473156929499951,-0.20423832686716253,0.0,0.0
2.565130260521042,0.018397109055203673,0.0008350978150499094,-0.0034313889779134686,-0.042158075687066074,-0.19086385029468717,0.0,0.0
2.5851703406813624,0.018340314461351752,-0.002839729692596053,-0.0041845391001750125,-0.0376575061130772,-0.25721293908530346,0.0,0.0
2.6052104208416833,0.01818434811465085,-0.007798317335045081,-0.0048136154597649625,-0.03145381797949752,-0.09880499380829455,0.0,0.0
2.6252505010020037,0.017991205192835806,-0.009657146090752178,-0.005415248704288712,-0.030081662226187453,-0.5158302847128413,0.0,0.0
2.6452905811623246,0.017598324360364938,-0.019644041623543402,-0.0057492882286223285,-0.016701976216680854,-0.32481279403937896,0.0,0.0
2.665330661322645,0.01708034130203675,-0.02589915291640941,-0.005929579236906849,-0.009014550414226042,-0.27383268914815956,0.0,0.0
2.685370741482966,0.016457201448147697,-0.03115699269445262,-0.005987080290141019,-0.0028750526617085156,-0.1741875830202375,0.0,0.0
2.7054108216432864,0.01576780530915087,-0.034469806949841274,-0.005980442605434193,0.0003318842353413204,-0.27187050565335913,0.0,0.0
2.7254509018036073,0.01497403266003867,-0.039688632455610086,-0.005852483574114855,0.006397951565966887,-0.1498463359744291,0.0,0.0
2.7454909819639277,0.014123463702122899,-0.04252844789578856,-0.005673775663625834,0.008935395524451054,-0.20253565910571728,0.0,0.0
2.7655310621242486,0.013195486502919579,-0.04639885996016599,-0.00541237056777697,0.013070254792443187,-0.09948494751058116,0.0,0.0
2.785571142284569,0.012230239101057003,-0.04826237009312877,-0.005126900610874598,0.014273497845118641,-0.19236194126937883,0.0,0.0
2.8056112224448895,0.011191396710031378,-0.05194211955128125,-0.004761235786382191,0.018283241224620307,-0.06044198522788877,0.0,0.0
2.8256513026052104,0.010130333012328976,-0.05305318488512007,-0.004390238673010194,0.018549855668599853,-0.23911641195571015,0.0,0.0
2.845691382765531,0.008977218346404851,-0.057655733296206296,-0.003907051077482523,0.024159379776383556,-0.15483531920270718,0.0,0.0
2.8657314629258517,0.007764802818445043,-0.06062077639799041,-0.0033579274797118966,0.02745617988853131,-0.12104916932392161,0.0,0.0
2.885771543086172,0.006506113236945782,-0.06293447907496307,-0.002759168791366871,0.029937934417251275,-0.09559852500914161,0.0,0.0
2.905811623246493,0.005210909466895654,-0.0647601885025064,-0.002121886997531344,0.031864089691776364,-0.044436465130551266,0.0,0.0
2.9258517034068134,0.0038989736027833155,-0.06559679320561693,-0.0014719916887332867,0.03249476543990286,-0.0016383345559373846,0.0,0.0
2.9458917835671343,0.0025868203142170847,-0.06560766442831154,-0.0008304203491310628,0.032078566980111196,-0.022118983205328763,0.0,0.0
2.9659318637274548,0.0012662736346572747,-0.0660273339779905,-0.0001811466124693685,0.03246368683308472,0.04093623150059053,0.0,0.0
2.9859719438877756,-3.824674069096128e-05,-0.0652260187674118,0.00044303820676727754,0.0312092409618323,0.03770663669458425,0.0,0.0
3.006012024048096,-0.0013281799863896224,-0.06449666228493306,0.0010479594379900429,0.030246061561138265,0.042162994022539736,0.0,0.0
3.0260521042084165,-0.0026019604990542566,-0.06368902563323171,0.0016348248682093328,0.029343271510964494,-0.04081246176147497,0.0,0.0
3.0460921843687374,-0.0038921356680040077,-0.06450875844748755,0.0022558736513409615,0.031052439156581447,0.005374528499750522,0.0,0.0
3.066132264529058,-0.0051808601286173666,-0.06443622303066794,0.002888003977360074,0.03160651630095564,0.03867688015564204,0.0,0.0
3.0861723446893787,-0.006455319619005907,-0.06372297451942702,0.0035157211352864577,0.03138585789631919,0.05656169752217101,0.0,0.0
3.106212424849699,-0.007708714939539834,-0.06266976602669637,0.004132521454413754,0.030840015956364816,0.08063914655283064,0.0,0.0
3.12625250501002,-0.008931827244239262,-0.06115561523497137,0.004728209989517115,0.029784426755168007,0.10732481907926039,0.0,0.0
