time,x,x_dot,theta,theta_dot,u,x_ref,theta_ref
0.0,0.0068478286056326,0.007867081241297716,-0.14565031921788463,-0.0387226863156682,-7.63162249977762,0.0,0.0
0.02004008016032064,0.004072785431635339,-0.13875215869986302,-0.1429283533849074,0.13609829164886236,-7.37141003208564,0.0,0.0
0.04008016032064128,-0.001534211140858958,-0.28034982862471486,-0.13684143640551732,0.3043458489695027,-4.7761769667250995,0.0,0.0
0.06012024048096192,-0.008964026668694157,-0.37149077639176,-0.12884916073399316,0.3996137835762081,-3.1033718081157797,0.0,0.0
0.08016032064128256,-0.01756731691164958,-0.4301645121477712,-0.11986742123501305,0.44908697494900535,-1.3058154662408878,0.0,0.0
0.1002004008016032,-0.02664611347869375,-0.45393982835220836,-0.11088067718796751,0.44933720235227675,-2.490311410828601,0.0,0.0
0.12024048096192384,-0.03666476626960389,-0.5009326395455069,-0.10114391824530192,0.48683794713327977,1.861327878280512,0.0,0.0
0.1402805611222445,-0.04592931524394038,-0.4632274487168246,-0.09312517302654957,0.40093726093761717,-3.5702753570678882,0.0,0.0
0.16032064128256512,-0.056559967541537574,-0.5315326148798596,-0.0836138695968571,0.4755651714846236,-1.11742799203844,0.0,0.0
0.18036072144288576,-0.06760297231586405,-0.5521502387163237,-0.0739773534809799,0.4818258057938595,-1.83731255048315,0.0,0.0
0.2004008016032064,-0.0793418737922254,-0.5869450738180677,-0.06373481626353673,0.5121268608721586,-0.991370383653045,0.0,0.0
0.22044088176352705,-0.09144963102809614,-0.6053878617935367,-0.053314736794765644,0.5210039734385543,-1.2351877821535497,0.0,0.0
0.24048096192384769,-0.10402432297690388,-0.628734597440387,-0.04250883375268581,0.5402951521039914,0.1362652409577434,0.0,0.0
0.2605210420841683,-0.11653392138563468,-0.6254799204365401,-0.0320501424806161,0.5229345636034857,0.056966196915361283,0.0,0.0
0.280561122244489,-0.12901228295414996,-0.6239180784257644,-0.021826558039635378,0.5111792220490361,-0.3946713021154251,0.0,0.0
0.3006012024048096,-0.1416385073618037,-0.6313112203826867,-0.01150962048612226,0.5158468776756558,-0.10195031621860606,0.0,0.0
0.32064128256513025,-0.15430127605032476,-0.6331384344260532,-0.0012055371824320482,0.5152041651845106,0.19250974159219014,0.0,0.0
0.3406813627254509,-0.16688858311959662,-0.6293653534635923,0.008978340346330351,0.50919387643812,1.3753974457592542,0.0,0.0
0.3607214428857715,-0.17894170536723542,-0.6026561123819398,0.018414232361054793,0.47179460073622215,1.0717936659024765,0.0,0.0
0.3807615230460922,-0.19058179306535059,-0.582004384905759,0.02733926644207072,0.4462517040507964,2.956998210748795,0.0,0.0
0.4008016032064128,-0.2010757719306043,-0.5246989432626854,0.034707487585452626,0.3684110571690954,1.1889418019529465,0.0,0.0
0.42084168336673344,-0.2111156832601876,-0.5019955664791652,0.04159935439290017,0.344593340372377,1.877145632588324,0.0,0.0
0.4408817635270541,-0.22043498837285766,-0.46596525563350366,0.047656302486249,0.3028474046674414,1.7448304616713997,0.0,0.0
0.4609218436873747,-0.22908708001248781,-0.4326045819815083,0.052994129100864575,0.26689133073077875,1.5039274799979203,0.0,0.0
0.48096192384769537,-0.23716750526681157,-0.40402126271618766,0.057787459905598436,0.23966654023669298,1.4377683612422412,0.0,0.0
0.501002004008016,-0.2447034710717057,-0.3767982902447065,0.06210536310147825,0.21589515979399101,1.291462502041034,0.0,0.0
0.5210420841683366,-0.2517533109828379,-0.35249199555660815,0.06606065473152387,0.19776458150228027,1.753697863539018,0.0,0.0
0.5410821643286573,-0.2581378542751347,-0.3192271646148406,0.0694087118718533,0.1674028570164715,1.9931675753921274,0.0,0.0
0.561122244488978,-0.26376467146590504,-0.28134085953851673,0.07203116567260207,0.13112269003743837,1.5269978032174791,0.0,0.0
0.5811623246492986,-0.26881638343322234,-0.2525855983658635,0.07421664881356071,0.10927415704793224,1.4519963577446942,0.0,0.0
0.6012024048096192,-0.27332288569066693,-0.2253251128722288,0.0760227991334435,0.09030751599413887,1.597172859409185,0.0,0.0
0.6212424849699398,-0.2772280780899934,-0.19525961996632382,0.07737645625628249,0.06768285614194985,1.7238112784556838,0.0,0.0
0.6412825651302605,-0.2804829621496008,-0.16274420298037026,0.07821241278147391,0.04179782625957093,1.6505888865721845,0.0,0.0
0.6613226452905812,-0.28311634542345376,-0.13166916369264925,0.07857868186409545,0.018313454131076913,1.8111332173478936,0.0,0.0
0.6813627254509018,-0.2850657159418646,-0.09746852592054212,0.0783840157094509,-0.009733307732227144,1.3062509556047768,0.0,0.0
0.7014028056112224,-0.28652794739175796,-0.07311157249466776,0.07792147817271342,-0.02312687683687429,1.979296290761785,0.0,0.0
0.721442885771543,-0.2872403821201585,-0.03562173642002698,0.07679578750917847,-0.056284533176747274,1.2435625252195248,0.0,0.0
0.7414829659318637,-0.28748966699918044,-0.012464243951097125,0.07542868605799966,-0.0683550725589403,0.8495929942853524,0.0,0.0
0.7615230460921844,-0.28742907908478854,0.003029395719594711,0.07404121001302269,-0.06937380224884793,0.1340903323286895,0.0,0.0
0.781563126252505,-0.2873373166267334,0.004588122902756009,0.07304182235580456,-0.04996938286090635,1.1687582676960806,0.0,0.0
0.8016032064128256,-0.28681050219115795,0.02634072177877221,0.0718208393675221,-0.06104914941412333,1.7664292248466578,0.0,0.0
0.8216432865731462,-0.28561514332463445,0.0597679433261739,0.07002192977617341,-0.08994547956743396,0.9744572359601541,0.0,0.0
0.8416833667334669,-0.28405964903887765,0.07777471428783898,0.06809561304501109,-0.09631583655811632,0.47040894874882255,0.0,0.0
0.8617234468937875,-0.2823400905854922,0.08597792266927198,0.06632376670509979,-0.08859231699556495,0.6517334537472866,0.0,0.0
0.8817635270541082,-0.28038522931927257,0.09774306331098097,0.06458941661946715,-0.08671750428163183,0.6282502010791785,0.0,0.0
0.9018036072144289,-0.2782037302867232,0.10907495162746847,0.06289531535688964,-0.08470506312887607,0.6771817050274386,0.0,0.0
0.9218436873747494,-0.27577602024415615,0.12138550212835081,0.06120220786834509,-0.08465537442722713,0.7086107836890551,0.0,0.0
0.9418837675350701,-0.27308935313118043,0.13433335564878626,0.05948105392330225,-0.08605769725214181,0.7465883890993567,0.0,0.0
0.9619238476953907,-0.2701284193332337,0.14804668989733447,0.057698808083178676,-0.08911229200617889,0.82551367209389,0.0,0.0
0.9819639278557114,-0.26686191588147834,0.16332517258776927,0.0557981253162435,-0.0950341383467589,0.8183820492293277,0.0,0.0
1.002004008016032,-0.2632920782099143,0.17849188357820317,0.05377115102984746,-0.10134871431980198,0.7788450639154332,0.0,0.0
1.0220440881763526,-0.2594337481646881,0.1929165022613082,0.05162815816927348,-0.1071496430286991,0.6587937695937155,0.0,0.0
1.0420841683366733,-0.25533314749286484,0.2050300335911642,0.04942571946523826,-0.11012193520176115,0.7064245005714709,0.0,0.0
1.062124248496994,-0.25097106072606634,0.21810433833992438,0.04712209876616782,-0.11518103495352183,0.6023476897886355,0.0,0.0
1.0821643286573146,-0.2463874328916474,0.2291813917209462,0.04476354508873274,-0.1179276838717541,0.6610844593720051,0.0,0.0
1.1022044088176353,-0.24155867017447313,0.24143813585871463,0.04230084426575434,-0.12313504114892004,0.5849862756605838,0.0,0.0
1.122244488977956,-0.23651375684614867,0.2522456664162238,0.03976290937601449,-0.12689674448699265,0.5628074492732041,0.0,0.0
1.1422845691382766,-0.2312606184625155,0.26265691918165823,0.03714667702412473,-0.13081161759448767,0.5457357141365355,0.0,0.0
1.1623246492985972,-0.22580516560188832,0.27277264303135895,0.0344456075642009,-0.1350534729961917,0.5013635951198571,0.0,0.0
1.1823647294589177,-0.22016393703038678,0.28206142857507654,0.031668587430474106,-0.13885100668633973,0.47818673055620076,0.0,0.0
1.2024048096192383,-0.21434517995633656,0.29093785370251046,0.02881163819033351,-0.1428474620070298,0.4157020722283795,0.0,0.0
1.222444889779559,-0.20837245688321065,0.2986361536562959,0.02589326318766954,-0.14591875013319855,0.2767878093235766,0.0,0.0
1.2424849699398797,-0.20229913681700817,0.3036660033101235,0.02297627778373885,-0.14584927019653435,0.2124218483025599,0.0,0.0
1.2625250501002003,-0.19614950115228452,0.30748178323618225,0.02007992492802082,-0.1448176427859016,0.16195964974208946,0.0,0.0
1.282565130260521,-0.18994241219058813,0.31035444808481893,0.0172154515999469,-0.14322366640369583,0.12576027242853455,0.0,0.0
1.3026052104208417,-0.18369117596969678,0.3125618110445674,0.014385967183121115,-0.14147422084128927,0.0826216935681962,0.0,0.0
1.3226452905811623,-0.17741181639971887,0.3139679784988957,0.011598862190022569,-0.1393552496549273,0.043219273809751775,0.0,0.0
1.342685370741483,-0.17111891164593315,0.3146452376892864,0.008859610659954002,-0.1369625765034283,-0.010562942456376075,0.0,0.0
1.3627254509018036,-0.16483266490623139,0.31431233698508765,0.006182400812185121,-0.13386049238844405,-0.049738318492701765,0.0,0.0
1.3827655310621243,-0.15856759719407373,0.31325338560788246,0.00357326863525815,-0.13045660884634852,-0.10366726045054273,0.0,0.0
1.4028056112224447,-0.152344006146389,0.3111795523842369,0.0010473098493467598,-0.1262979392955695,-0.14981606043019388,0.0,0.0
1.4228456913827654,-0.14617917709775233,0.3082414524318331,-0.0013844067069378185,-0.12158582781422891,-0.4251237875641496,0.0,0.0
1.442885771543086,-0.14017984598752675,0.29996655551127865,-0.0035761668750776163,-0.10958800840698989,-0.24134718993405804,0.0,0.0
1.4629258517034067,-0.13427367054003353,0.29530877237466163,-0.005649296403196368,-0.10365647640593756,-0.26827457826222706,0.0,0.0
1.4829659318637274,-0.128470564507142,0.29015530164457654,-0.0076011177802231345,-0.09759106885133835,-0.29010980918875157,0.0,0.0
1.503006012024048,-0.12277848914998162,0.28460376785801933,-0.009431168203902301,-0.09150252118395837,-0.2936251661342473,0.0,0.0
1.5230460921843687,-0.11719829163831019,0.27900987558357115,-0.011148933947557775,-0.08588828718277365,-0.3105277771753657,0.0,0.0
1.5430861723446894,-0.11173607526015543,0.273110818907738,-0.012755362948504888,-0.08032145004735569,-0.3279641569331847,0.0,0.0
1.56312625250501,-0.10639818340938872,0.2668945925383355,-0.014250389455727609,-0.07475132536113603,-0.33837821153074293,0.0,0.0
1.5831663326653307,-0.10118825107512279,0.26049661671329655,-0.015637353170042792,-0.06934818571575913,-0.3531238811743413,0.0,0.0
1.6032064128256511,-0.09611163445467208,0.2538308310225359,-0.01691637911310262,-0.06395129715299144,-0.36132873625490425,0.0,0.0
1.6232464929859718,-0.09117116829197634,0.2470233081347865,-0.01809073757223161,-0.05871792295644941,-0.4579716721990663,0.0,0.0
1.6432865731462925,-0.08640422733523138,0.2383470478372478,-0.019111314662237238,-0.051028854500281454,-0.46961589311056584,0.0,0.0
1.6633266533066131,-0.08181506228912339,0.2294582523054,-0.019977740617415436,-0.04332129775890983,-0.4351270226239739,0.0,0.0
1.6833667334669338,-0.07738996625771977,0.22125480157018074,-0.020715653781735337,-0.03689565821599507,-0.4454302407934993,0.0,0.0
1.7034068136272544,-0.07313274782628172,0.21286092157190228,-0.021323685084710803,-0.030401565148773218,-0.4274055656030402,0.0,0.0
1.723446893787575,-0.06903619892667046,0.20482744498056363,-0.021816212836423446,-0.024626387585632226,-0.4233283656150018,0.0,0.0
1.7434869739478958,-0.06509858716818692,0.19688058792417665,-0.02219872952139309,-0.019125834248482083,-0.40255071861075475,0.0,0.0
1.7635270541082164,-0.06131169503483937,0.1893446066673779,-0.022485799933873986,-0.014353520624044772,-0.40312000770359147,0.0,0.0
1.783567134268537,-0.057675662260671196,0.1818016387084086,-0.022678902604352316,-0.009655133523916401,-0.38637555992749784,0.0,0.0
1.8036072144288577,-0.054183899534205424,0.17458813632328862,-0.02278904821754474,-0.005507280659621146,-0.37336658383214966,0.0,0.0
1.8236472945891782,-0.05083129898803586,0.16763002730847823,-0.022824539426634892,-0.0017745604545076816,-0.3171330940090415,0.0,0.0
1.8436873747494988,-0.047595907493607446,0.16176957472142067,-0.022818485457029896,0.00030269848024986647,-0.2935430094497611,0.0,0.0
1.8637274549098195,-0.044468521669813785,0.15636929118968318,-0.022784643575858174,0.001692094058586034,-0.29312899594797526,0.0,0.0
1.8837675350701402,-0.04144898966722409,0.15097660012948494,-0.02272304241671158,0.003080057957329579,-0.3003466579721548,0.0,0.0
1.9038076152304608,-0.03854014556265138,0.14544220522863519,-0.022629072494958342,0.004698496087661938,-0.30902530390047905,0.0,0.0
1.9238476953907815,-0.03574540280976371,0.1397371376443835,-0.02249706572870217,0.006600338312808426,-0.3037916574371647,0.0,0.0
1.9438877755511021,-0.0330627570360105,0.13413228868766053,-0.022329250011586695,0.008390785855773752,-0.2978256346233821,0.0,0.0
1.9639278557114228,-0.030489928353940085,0.12864143410352066,-0.022128055662352805,0.01005971746169447,-0.2933991405728523,0.0,0.0
1.9839679358717435,-0.028025247187536316,0.12323405832018847,-0.02189480214010736,0.011662676112272147,-0.293211827896258,0.0,0.0
2.004008016032064,-0.025668707332632584,0.11782699274518668,-0.021628127568760327,0.013333728567351743,-0.28298551514503645,0.0,0.0
2.024048096192385,-0.02341639482435213,0.11261562541402272,-0.021332330219631584,0.014789867456437228,-0.20931232880286293,0.0,0.0
2.0440881763527052,-0.02123964623959574,0.10883742923781944,-0.02104862980211059,0.014185020876049705,-0.21999634420002295,0.0,0.0
2.064128256513026,-0.019142711926032497,0.10484671567816209,-0.020768988765144485,0.0139820518483052,-0.23495556757005215,0.0,0.0
2.0841683366733466,-0.01713150932617018,0.10056012999311578,-0.02048289479962987,0.014304698275730734,-0.23546107987295795,0.0,0.0
2.1042084168336674,-0.015206317707393713,0.09625958093882332,-0.02018824777146135,0.014732351408426148,-0.23680026198210727,0.0,0.0
2.124248496993988,-0.013367744101346259,0.09192868030237275,-0.019882406030461854,0.015292087049974852,-0.23502607828128297,0.0,0.0
2.1442885771543083,-0.011615183870788142,0.08762801152790584,-0.01956447812579601,0.015896395233292233,-0.23562175241592676,0.0,0.0
2.164328657314629,-0.009948960597850685,0.08331116364687284,-0.019232110386747287,0.016618386952436056,-0.22959011491250345,0.0,0.0
2.1843687374749496,-0.008366815927179572,0.07910723353355562,-0.0188867340358469,0.017268817545019324,-0.22308788899874768,0.0,0.0
2.2044088176352705,-0.006866311597223459,0.07502521649780566,-0.018529973523618855,0.01783802561140231,-0.21798680225796413,0.0,0.0
2.224448897795591,-0.005445559352373345,0.07103761224250571,-0.01816256208694876,0.01837057183350463,-0.19442131677315524,0.0,0.0
2.244488977955912,-0.00409546887111668,0.06750452406283322,-0.017795964971368494,0.018329855779013363,-0.1794932453200241,0.0,0.0
2.2645290581162323,-0.002810320040814176,0.0642574415151252,-0.017436601034222145,0.017968196857317483,-0.19649032212689663,0.0,0.0
2.284569138276553,-0.0015968484105538209,0.060673581513017764,-0.01707226276868884,0.018216913276665293,-0.1882919923777975,0.0,0.0
2.3046092184368736,-0.00045195928154234764,0.05724445645057366,-0.01670544731981124,0.018340772443879813,-0.19457882246710245,0.0,0.0
2.3246492985971945,0.0006217889693056597,0.053687412542400365,-0.016330164197229588,0.01876415612908264,-0.18701387958647225,0.0,0.0
2.344689378757515,0.001627240746084093,0.05027258883892166,-0.015948471126940044,0.019084653514477138,-0.18565029857828808,0.0,0.0
2.3647294589178354,0.0025648187327500386,0.046878899333297266,-0.015558758366332491,0.01948563803037765,-0.18055617052545536,0.0,0.0
2.3847695390781563,0.0034363990441435184,0.04357901556967399,-0.015161547569316413,0.019860539850803896,-0.17749946223565488,0.0,0.0
2.4048096192384767,0.004243060607495603,0.040333078167604224,-0.014756121461098812,0.020271305410880017,-0.17125929725399275,0.0,0.0
2.4248496993987976,0.004987122243616647,0.03720308180605217,-0.014343572981801191,0.02062742396488107,-0.1387711824463663,0.0,0.0
2.444889779559118,0.0056811432155642804,0.03470104859738166,-0.013940302745825719,0.020163511798773594,-0.14722639059879503,0.0,0.0
2.464929859719439,0.006321708550056188,0.03202826672459536,-0.013538822051489017,0.0200740347168351,-0.15356278559427292,0.0,0.0
2.4849699398797593,0.006906230580509878,0.029226101522684518,-0.013132892727567744,0.0202964661960636,-0.1467214077617599,0.0,0.0
2.50501002004008,0.007437262602242755,0.026551601086643818,-0.012723956378528925,0.02044681745194093,-0.1459449157406633,0.0,0.0
2.5250501002004007,0.007914990403789015,0.02388639007731302,-0.012309888223654473,0.020703407743722604,-0.14179071785738223,0.0,0.0
2.5450901803607215,0.008340916355184209,0.021296297569759745,-0.01189050681626028,0.020969070369709623,-0.1363488211237959,0.0,0.0
2.565130260521042,0.008717043793150967,0.018806371898337903,-0.011466350436144239,0.02120781900580202,-0.12878424943802363,0.0,0.0
2.5851703406813624,0.009046203003107246,0.01645796049781393,-0.011039168899284711,0.02135907684297641,-0.11973896053412703,0.0,0.0
2.6052104208416833,0.009331801216533837,0.014279910671329492,-0.010611559111382785,0.021380489395096312,-0.11451389758279767,0.0,0.0
2.6252505010020037,0.009575754807489768,0.012197679547796615,-0.010183880746216288,0.02138391825832483,-0.0955985706877606,0.0,0.0
2.6452905811623246,0.009785322389333209,0.010478379092172044,-0.009764501039095227,0.02096898535605306,-0.09847780831806509,0.0,0.0
2.665330661322645,0.009959260217386693,0.008696891402674217,-0.00934909112173559,0.020770495867981832,-0.08946734739945009,0.0,0.0
2.685370741482966,0.010100965320959417,0.007085255178636196,-0.008940301947643564,0.020439458704601378,-0.09041801464144805,0.0,0.0
2.7054108216432864,0.010209949561457418,0.005449212024900016,-0.008534999536366343,0.020265120563860976,-0.08488895149494163,0.0,0.0
2.7254509018036073,0.010288254343187538,0.00391523908650597,-0.008133862197886987,0.020056866923967836,-0.08198241888588399,0.0,0.0
2.7454909819639277,0.010336898890726245,0.002432227376935348,-0.0077360604774395925,0.019890086022369708,-0.07693830037279621,0.0,0.0
2.7655310621242486,0.010357737522594,0.0010419315933877398,-0.0073420363524412694,0.019701206249916156,-0.07178038387070598,0.0,0.0
2.785571142284569,0.010352670047754609,-0.0002533737419695638,-0.006952322206894347,0.019485707277346127,-0.0665339623589562,0.0,0.0
2.8056112224448895,0.010323632048265658,-0.0014518999744475114,-0.006567529392754178,0.019239640707008433,-0.0612678297699065,0.0,0.0
2.8256513026052104,0.010272568209380934,-0.0025531919442361847,-0.006188311842720789,0.018960877501669447,-0.036307693135642014,0.0,0.0
2.845691382765531,0.010209109907397875,-0.0031729150991529377,-0.005826878880050659,0.018071648133506497,-0.03348038000685956,0.0,0.0
2.8657314629258517,0.010134256840878804,-0.0037426533259535873,-0.005482605190125493,0.017213684496258264,-0.03311693010532492,0.0,0.0
2.885771543086172,0.01004805216427397,-0.004310233830241676,-0.005153532397436265,0.01645363963446143,-0.03257110783383608,0.0,0.0
2.905811623246493,0.009950614553897006,-0.004871880518848123,-0.004837904661041319,0.015781386819747285,-0.03147861104081111,0.0,0.0
2.9258517034068134,0.009842279864949375,-0.005416734447381613,-0.004534370707901675,0.01517669765698222,-0.02993803563464985,0.0,0.0
2.9458917835671343,0.00972356226996269,-0.0059358797493343236,-0.00424191763865731,0.014622653462218261,-0.028147798934645734,0.0,0.0
2.9659318637274548,0.009595076541243907,-0.006424286435939148,-0.003959748474112474,0.014108458227241773,-0.026040168861447267,0.0,0.0
2.9859719438877756,0.009457564253399635,-0.006875614392213562,-0.0036873167513101312,0.013621586140117147,-0.02392879914049035,0.0,0.0
3.006012024048096,0.009311771231116003,-0.0072896511141815916,-0.0034241396005482007,0.013158857538096522,-0.022546451193890444,0.0,0.0
3.0260521042084165,0.009158161468442623,-0.007680488133669044,-0.003169366057190911,0.012738677167864483,-0.0024525451298129004,0.0,0.0
3.0460921843687374,0.009004503100260138,-0.007682918409124285,-0.002933143852566544,0.011811110231218353,-0.006024733189104617,0.0,0.0
