time,x,x_dot,theta,theta_dot,u,x_ref,theta_ref
0.0,-0.033604329580382064,-0.0531200952104167,-0.17295689672306958,0.04257164077642275,-8.77070065440116,0.0,0.0
0.02004008016032064,-0.03803340950306758,-0.22145399613427558,-0.16814519103288744,0.24058528450910718,-7.921214810597862,0.0,0.0
0.04008016032064128,-0.04550022848838967,-0.37334094926610467,-0.15982737194974295,0.4158909541572254,-6.065298683564414,0.0,0.0
0.06012024048096192,-0.05528509289754515,-0.4892432204577739,-0.14901414933908924,0.5406611305326852,-5.384603651011446,0.0,0.0
0.08016032064128256,-0.06712661857357166,-0.5920762838013252,-0.1360244473342166,0.6494851002436328,-4.434938160504189,0.0,0.0
0.1002004008016032,-0.08065910464746583,-0.6766243036947082,-0.12132016517764649,0.7352141078285048,-2.0255349643722385,0.0,0.0
0.12024048096192384,-0.09494803888155802,-0.7144467117046095,-0.1062014238750866,0.7559370651279943,0.7690091836149922,0.0,0.0
0.1402805611222445,-0.10890812486789636,-0.6980042993169168,-0.09219577130330964,0.700282628588848,-1.3104384306850156,0.0,0.0
0.16032064128256512,-0.12335388076356825,-0.7222877947835944,-0.07800616627829927,0.709480251250518,-0.7532045773779585,0.0,0.0
0.18036072144288576,-0.1380719322905128,-0.7359025763472266,-0.06386753922451749,0.706931352689089,-1.17685707449115,0.0,0.0
0.2004008016032064,-0.15323145790639303,-0.7579762807940125,-0.049443515424996295,0.7212011899760599,-0.22385095057632476,0.0,0.0
0.22044088176352705,-0.1684646751511737,-0.7616608622390325,-0.03519958613881635,0.712196464308997,-1.087976702746518,0.0,0.0
0.24048096192384769,-0.18411267881503515,-0.782400183193073,-0.020541052584274577,0.7329266777270887,0.6458844248907145,0.0,0.0
0.2605210420841683,-0.19950297859721722,-0.7695149891091032,-0.00638944936870129,0.7075801607786644,3.331206173005862,0.0,0.0
0.280561122244489,-0.2135915897924268,-0.7044305597604791,0.005773334128085275,0.6081391748393282,0.7213040590817967,0.0,0.0
0.3006012024048096,-0.2274003431777225,-0.6904376692647859,0.017550525916924683,0.5888595894419704,3.1636763145210316,0.0,0.0
0.32064128256513025,-0.23997948614909057,-0.628957148568403,0.02758786533930728,0.5018669711191299,1.0180879607319602,0.0,0.0
0.3406813627254509,-0.25216913446267236,-0.6094824156790899,0.03720364463850345,0.48078896495980855,1.7275025846797818,0.0,0.0
0.3607214428857715,-0.2636952197098822,-0.5763042623604927,0.0460439597274822,0.4420157544489375,1.9556206280868285,0.0,0.0
0.3807615230460922,-0.2744712907915346,-0.5388035540826212,0.05403162164453155,0.39938309585246734,2.2268064225335404,0.0,0.0
0.4008016032064128,-0.2843938752403733,-0.4961292224419344,0.06105907342294769,0.35137258892080714,1.809461395949529,0.0,0.0
0.42084168336673344,-0.2936278594995053,-0.4616992129566003,0.06741477390310863,0.3177850240080468,2.379115569878449,0.0,0.0
0.4408817635270541,-0.30195288479483123,-0.4162512647662953,0.07280683396725614,0.26960300320737524,1.0384054588644238,0.0,0.0
0.4609218436873747,-0.3098935382320651,-0.39703267186169483,0.0780516817615775,0.26224238971606806,1.760638328848013,0.0,0.0
0.48096192384769537,-0.3171696172631205,-0.3638039515527681,0.08276151530686597,0.23549167726442385,2.0186086632182367,0.0,0.0
0.501002004008016,-0.32368188913853846,-0.32561359377089993,0.08681605156041397,0.20272681267740006,2.1928717485960942,0.0,0.0
0.5210420841683366,-0.32936359220413747,-0.28408515327995176,0.09013972083408256,0.16618346368342918,1.831781647570069,0.0,0.0
0.5410821643286573,-0.33435654356516686,-0.249647568051469,0.09296407304863682,0.14121761072771338,1.9830701042027117,0.0,0.0
0.561122244488978,-0.3386025774878068,-0.2123016961319961,0.09521908451492364,0.11275057331434098,1.441611360810601,0.0,0.0
0.5811623246492986,-0.34231351581655733,-0.1855469164375273,0.09723428092582853,0.10075982054524452,2.3012377143250413,0.0,0.0
0.6012024048096192,-0.3451547269504474,-0.1420605566945048,0.09852234035963237,0.06440297169019144,1.573397451454695,0.0,0.0
0.6212424849699398,-0.347410421419504,-0.11278472345282956,0.09951494318490946,0.049630141263854906,1.842027825774783,0.0,0.0
0.6412825651302605,-0.3489761385462619,-0.07828585633789556,0.10006216141995176,0.02736091175211514,2.031252796390568,0.0,0.0
0.6613226452905812,-0.3497782540657352,-0.04010577597366499,0.10005743573235414,-0.00023628437988123044,1.9374683372666341,0.0,0.0
0.6813627254509018,-0.3498533385151778,-0.003754222472129934,0.09955528529957886,-0.02510752163876374,1.8910641346824912,0.0,0.0
0.7014028056112224,-0.34921933946731737,0.0316999523930224,0.09857949079999936,-0.04878972497897473,1.7901387863242264,0.0,0.0
0.721442885771543,-0.34791532541780235,0.06520070247575163,0.09718252547294602,-0.06984826635266705,1.5844299449114,0.0,0.0
0.7414829659318637,-0.3460211036262198,0.09471108957912695,0.09547515408123718,-0.08536856958544198,1.516617328419161,0.0,0.0
0.7615230460921844,-0.3435626203329484,0.1229241646635696,0.0934859626879241,-0.09945956966565384,1.5247494441847904,0.0,0.0
0.781563126252505,-0.3405361246595532,0.15132478366976077,0.09119755730265335,-0.11442026926353777,1.468870701710635,0.0,0.0
0.8016032064128256,-0.3369627416499771,0.17866915047880647,0.08862790429959222,-0.1284826501530562,1.4738739854513294,0.0,0.0
0.8216432865731462,-0.3328397721344675,0.20614847577547818,0.08575774505242804,-0.1435079623582087,1.5368322756623074,0.0,0.0
0.8416833667334669,-0.32814182563143857,0.2348973251514471,0.08253214966858116,-0.1612797691923442,1.4066897698539416,0.0,0.0
0.8617234468937875,-0.32291872073460703,0.26115524484157776,0.07900642391100346,-0.17628628787888498,1.3538672202207562,0.0,0.0
0.8817635270541082,-0.31719003602501655,0.2864342354795252,0.07518895105021008,-0.19087364303966942,1.2431898161793065,0.0,0.0
0.9018036072144289,-0.3109978348943402,0.30961005653381857,0.0711200196986573,-0.20344656757763854,1.1441167823247969,0.0,0.0
0.9218436873747494,-0.3043795864515828,0.3309124221378703,0.0668316033751427,-0.21442081617573067,1.0605212138669269,0.0,0.0
0.9418837675350701,-0.297366663206706,0.3506461622438402,0.062345297500049905,-0.2243152937546397,0.9370032349600129,0.0,0.0
0.9619238476953907,-0.29000595862191414,0.36803522923959253,0.05770478243026996,-0.23202575348899712,0.8289089639548233,0.0,0.0
0.9819639278557114,-0.2823383098575041,0.3833824382205042,0.05294380856900937,-0.23804869306302953,0.738598623239003,0.0,0.0
1.002004008016032,-0.27439758537713776,0.39703622401831573,0.048085020395566364,-0.24293940867215014,0.6572203629416657,0.0,0.0
1.0220440881763526,-0.2662141437431243,0.40917208170067254,0.04314525889666346,-0.2469880749451454,0.5666137879735359,0.0,0.0
1.0420841683366733,-0.25782192338780785,0.419611017765822,0.038146273189478844,-0.24994928535923053,0.44735990573952233,0.0,0.0
1.062124248496994,-0.24926602598484657,0.42779487014806455,0.0331262093848923,-0.251003190229327,0.30955088126906494,0.0,0.0
1.0821643286573146,-0.24059879022865316,0.43336178780967105,0.028133958780580504,-0.24961253021558993,0.19778151654039988,0.0,0.0
1.1022044088176353,-0.23186240475195335,0.4368192738349906,0.0232033919457511,-0.24652834174147015,0.054622778571118275,0.0,0.0
1.122244488977956,-0.22311132567281267,0.43755395395703384,0.018387142893805546,-0.24081245259727765,-0.06340640338252498,0.0,0.0
1.1422845691382766,-0.21439023712829683,0.436054427225792,0.01372388672709351,-0.2331628083356018,-0.10543510796254427,0.0,0.0
1.1623246492985972,-0.20571421021390407,0.4338013457196373,0.009208817944048753,-0.22575343915223786,-0.19839741668093575,0.0,0.0
1.1823647294589177,-0.19711823292877587,0.4297988642564107,0.004867856780581991,-0.2170480581733381,-0.26482028914855216,0.0,0.0
1.2024048096192383,-0.18862698605379877,0.42456234374885515,0.0007124962555034552,-0.2077680262539268,-0.32390116391054735,0.0,0.0
1.222444889779559,-0.1802623374793221,0.41823242872383337,-0.0032488986179296155,-0.19806974367165353,-0.5937269683426423,0.0,0.0
1.2424849699398797,-0.1721284477058519,0.4066944886735105,-0.006883464874806401,-0.18172831284383925,-0.6116893806962784,0.0,0.0
1.2625250501002003,-0.16423128569595385,0.3948581004949027,-0.010203618860288009,-0.16600769927408035,-0.6127444840226624,0.0,0.0
1.282565130260521,-0.15657031171324468,0.3830486991354588,-0.013229689287694307,-0.15130352137031494,-0.6293296438358208,0.0,0.0
1.3026052104208417,-0.14915112970151012,0.3709591005867277,-0.015971069732905952,-0.1370690222605823,-0.6429175848814572,0.0,0.0
1.3226452905811623,-0.14197825503038344,0.3586437335563332,-0.018437114269028804,-0.12330222680614261,-0.6265581735679168,0.0,0.0
1.342685370741483,-0.13504459565341068,0.3466829688486385,-0.02065295731503579,-0.11079215230034929,-0.6497385843392388,0.0,0.0
1.3627254509018036,-0.12835856021445283,0.33430177194789285,-0.02261903053032389,-0.09830366076440511,-0.6315491548264939,0.0,0.0
1.3827655310621243,-0.12191248576759066,0.32230372234310833,-0.02435838458864055,-0.086967702915833,-0.6497812332318997,0.0,0.0
1.4028056112224447,-0.11571298654182942,0.3099749612880619,-0.025871340172721156,-0.0756477792040304,-0.6248798703786262,0.0,0.0
1.4228456913827654,-0.10974991067554406,0.29815379331426795,-0.027182012332121752,-0.06553360797002972,-0.8107169547666311,0.0,0.0
1.442885771543086,-0.10409539577611154,0.2827257449716256,-0.02819001373903243,-0.050400070345533836,-0.6791881020384455,0.0,0.0
1.4629258517034067,-0.09869782822812471,0.26987837739934134,-0.02897861970111976,-0.039430298104366615,-0.7065845155793581,0.0,0.0
1.4829659318637274,-0.09356767114505317,0.2565078541535774,-0.029536792831555993,-0.0279086565218117,-0.6577148430193057,0.0,0.0
1.503006012024048,-0.08868569474544463,0.24409881998042715,-0.029896632362003003,-0.017991976522350475,-0.5723157426963721,0.0,0.0
1.5230460921843687,-0.08401847264906619,0.23336110481892203,-0.030110341732197413,-0.010685468509720516,-0.5698880935026482,0.0,0.0
1.5430861723446894,-0.07956499612102418,0.22267382640210048,-0.030180689738855394,-0.0035174003328990004,-0.5097322056855964,0.0,0.0
1.56312625250501,-0.07530177207629,0.21316120223670856,-0.030143291839813367,0.001869894952101354,-0.5025529700457239,0.0,0.0
1.5831663326653307,-0.07122600990158161,0.20378810873541991,-0.030002109456064564,0.0070591191874402395,-0.4657862614065594,0.0,0.0
1.6032064128256511,-0.06732340374842778,0.1951303076576915,-0.029777747854189802,0.011218080093738123,-0.4738416325168666,0.0,0.0
1.6232464929859718,-0.06359716123382825,0.18631212572997705,-0.02946408117187135,0.015683334115922657,-0.4455767581941678,0.0,0.0
1.6432865731462925,-0.06003634341973782,0.1780408907045215,-0.02907565559441267,0.01942127887293404,-0.44139441960385134,0.0,0.0
1.6633266533066131,-0.0566394298364616,0.16984567916381094,-0.028612465081348796,0.023159525653193687,-0.4198233894511762,0.0,0.0
1.6833667334669338,-0.05339813635369122,0.16206467413851905,-0.028084198974598934,0.026413305337493177,-0.4031395384681018,0.0,0.0
1.7034068136272544,-0.05030610446526365,0.1546015944213783,-0.027497278806980344,0.02934600838092947,-0.3542839799956947,0.0,0.0
1.723446893787575,-0.04734443891194215,0.1480832776660752,-0.026876567804107097,0.03103555014366234,-0.28395845486178445,0.0,0.0
1.7434869739478958,-0.044485876300699535,0.14292813056213063,-0.02625927130136537,0.030864825137086403,-0.29752761701828606,0.0,0.0
1.7635270541082164,-0.04173588831694701,0.1374993991876265,-0.025633561034378027,0.031285513349367196,-0.28748278663553345,0.0,0.0
1.783567134268537,-0.0390907347550826,0.13225767809322037,-0.02500136368256991,0.031609867590405835,-0.2746917184518328,0.0,0.0
1.8036072144288577,-0.036545605648721766,0.12725645531804194,-0.02436617111258028,0.03175962849948135,-0.2639428638885937,0.0,0.0
1.8236472945891782,-0.034096488758019364,0.12245584453512023,-0.02373026232664855,0.031795439296586604,-0.1804296681171526,0.0,0.0
1.8436873747494988,-0.03171097865845105,0.11927550497841563,-0.02313846349498042,0.02958994158340653,-0.19908671203224318,0.0,0.0
1.8637274549098195,-0.029396525024642656,0.11572268169041974,-0.022576132103729493,0.02811656956254634,-0.20758826317706644,0.0,0.0
1.8837675350701402,-0.027156606356904284,0.11199593338691868,-0.022034750041214222,0.02706910312576355,-0.21391049913255641,0.0,0.0
1.9038076152304608,-0.0249938447875621,0.10813807846710924,-0.021507205623947,0.02637722086336113,-0.2171263897029618,0.0,0.0
1.9238476953907815,-0.022909646370323746,0.10420992086191776,-0.020988290958891747,0.02594573325276265,-0.22377242360001182,0.0,0.0
1.9438877755511021,-0.02090675318876562,0.10014465907790623,-0.020470846472625835,0.025872224313295587,-0.21875259699421684,0.0,0.0
1.9639278557114228,-0.018983354741630844,0.09616992235673881,-0.019954544325005014,0.025815107381041088,-0.2106163991003487,0.0,0.0
1.9839679358717435,-0.01713642414431534,0.0923465298657751,-0.019440886519500756,0.02568289027521282,-0.20342259534102297,0.0,0.0
2.004008016032064,-0.015363301483517281,0.08865613303990305,-0.018930840684932997,0.02550229172838792,-0.19665285915683867,0.0,0.0
2.024048096192385,-0.013661491283104494,0.08509051002063936,-0.018425149299889903,0.025284569252154748,-0.1494312924122016,0.0,0.0
2.0440881763527052,-0.012012711847364403,0.08243897178700459,-0.01794824102842295,0.023845413573347587,-0.1598449732109239,0.0,0.0
2.064128256513026,-0.010421163412761504,0.07957742173014491,-0.01749101777015444,0.02286116291342551,-0.1709931174734971,0.0,0.0
2.0841683366733466,-0.008891327197406772,0.07649181076773659,-0.017044075857254645,0.022347095644989858,-0.1709220449065888,0.0,0.0
2.1042084168336674,-0.00742330355585371,0.0734011820776531,-0.01660463817444569,0.02197188414044786,-0.1677322144496094,0.0,0.0
2.124248496993988,-0.006015973700610222,0.07036649276217442,-0.016171799024355275,0.0216419575045207,-0.16547125049542769,0.0,0.0
2.1442885771543083,-0.0046685794145153075,0.06736971430474573,-0.01574415106541352,0.02138239794708782,-0.1627347130976308,0.0,0.0
2.164328657314629,-0.003380175416244661,0.06442019991353232,-0.01532059786582452,0.02117765997945,-0.1562035603849498,0.0,0.0
2.1843687374749496,-0.0021483345192195445,0.06159204485125583,-0.014902288285661059,0.020915479008173078,-0.15435131249126344,0.0,0.0
2.2044088176352705,-0.0009724538314773389,0.058794034387110276,-0.014487667618358816,0.020731033365112134,-0.15115240784786974,0.0,0.0
2.224448897795591,0.0001485960871819808,0.05605249593296598,-0.014075992093584448,0.020583776238718435,-0.08434857969610438,0.0,0.0
2.244488977955912,0.001240765460678192,0.054608468674810555,-0.013703739503703575,0.018612629494043655,-0.08061985073533792,0.0,0.0
2.2645290581162323,0.0023054026594379416,0.053231859937987486,-0.013370743460382644,0.016649802166046487,-0.10408600384774291,0.0,0.0
2.284569138276553,0.0033332552878989636,0.0513926314230511,-0.013061178478294255,0.015478249104419521,-0.11883027599964481,0.0,0.0
2.3046092184368736,0.004318481107063149,0.04926129095820926,-0.012764468247754622,0.014835511526981683,-0.14738053465084727,0.0,0.0
2.3246492985971945,0.005249854158082395,0.046568652550962306,-0.01246204205329819,0.015121309722821542,-0.16521942901209866,0.0,0.0
2.344689378757515,0.0061203266296052244,0.04352362357614145,-0.012141558279610833,0.01602418868436783,-0.1537063975351177,0.0,0.0
2.3647294589178354,0.006934299284150172,0.04069863272724738,-0.011807729976121898,0.016691415174446774,-0.13762507533409393,0.0,0.0
2.3847695390781563,0.0076979517133606585,0.038182621460524334,-0.011467858212493976,0.016993588181396083,-0.12507340849302548,0.0,0.0
2.4048096192384767,0.008416084435699725,0.03590663611695334,-0.011127141434730535,0.017035838888172124,-0.10626671410317459,0.0,0.0
2.4248496993987976,0.009095938586891629,0.0339927075595952,-0.010794431591932297,0.01663549213991191,-0.01575856774931042,0.0,0.0
2.444889779559118,0.009772737145177202,0.033839927914278665,-0.010520571870632258,0.013692986065001925,-0.05860866848248667,0.0,0.0
2.464929859719439,0.010429680558190607,0.032847170650670256,-0.010278770864375692,0.012090050312828312,-0.08106375580111119,0.0,0.0
2.4849699398797593,0.011057937041477388,0.03141282416433903,-0.010054368970635318,0.011220094687018695,-0.09423464340675253,0.0,0.0
2.50501002004008,0.011652302696278032,0.0297182827400322,-0.009838246922247992,0.010806102419366352,-0.09793651926927334,0.0,0.0
2.5250501002004007,0.012211271020099609,0.0279484161910789,-0.009626876435952714,0.010568524314763897,-0.10472841178858293,0.0,0.0
2.5450901803607215,0.01273213107346165,0.02604300266810212,-0.009414951698271367,0.01059623688406738,-0.10765514723549609,0.0,0.0
2.565130260521042,0.01321368003034433,0.024077447844133952,-0.009199424279094913,0.010776370958822676,-0.11016646273335878,0.0,0.0
2.5851703406813624,0.013654876137239418,0.02205980534475442,-0.008977466017267314,0.011097913091379943,-0.12141005191461272,0.0,0.0
2.6052104208416833,0.014051268255207382,0.019819605898398245,-0.008741100276052289,0.011818287060751241,-0.11982085533220276,0.0,0.0
2.6252505010020037,0.014403408770593895,0.017607025769325678,-0.008489766037207086,0.012566711942260137,-0.03788554675089516,0.0,0.0
2.6452905811623246,0.014743198761211626,0.016989499530886496,-0.008269806294407836,0.010997987139962502,-0.0827047261753386,0.0,0.0
2.665330661322645,0.015053085666247348,0.01549434525178608,-0.008053617007244126,0.01080946435818545,-0.08179679459523193,0.0,0.0
2.685370741482966,0.015333361816730175,0.01401380752414138,-0.007840365948370266,0.010662552943693039,-0.08432974925030003,0.0,0.0
2.7054108216432864,0.015582977668147507,0.012480792570866575,-0.007627226664038279,0.010656964216599344,-0.08523106326299927,0.0,0.0
2.7254509018036073,0.01580152041283291,0.010927137234270088,-0.007412327833016627,0.010744941551082618,-0.08524958981050901,0.0,0.0
2.7454909819639277,0.015988921223389765,0.009370040527842778,-0.007194303426097124,0.010901220345975168,-0.08459716065037111,0.0,0.0
2.7655310621242486,0.016145372199524038,0.007822548806713738,-0.006972160182468581,0.011107162181427155,-0.0830485648443732,0.0,0.0
2.785571142284569,0.016271413966457243,0.006302088346660203,-0.006745403087086637,0.01133785476909721,-0.0805946423764717,0.0,0.0
2.8056112224448895,0.01636793910782282,0.0048262570682789194,-0.006514037610225123,0.011568273843075683,-0.0785260601395456,0.0,0.0
2.8256513026052104,0.016435688517244224,0.003387470471070097,-0.0062778147573465636,0.01181114264392797,-0.04547666387236726,0.0,0.0
2.845691382765531,0.016487491182593614,0.0025901332674695475,-0.006054577452055819,0.01116186526453721,-0.04730980881037701,0.0,0.0
2.8657314629258517,0.016522567780970724,0.0017538299188555968,-0.005841845638139418,0.010636590695820045,-0.050939118512213076,0.0,0.0
2.885771543086172,0.016539441091038675,0.000843665503397541,-0.005636154814033526,0.010284541205294583,-0.05322593745982027,0.0,0.0
2.905811623246493,0.016537159782043797,-0.00011406544974382736,-0.0054348701786650425,0.010064231768424204,-0.054581960453881466,0.0,0.0
2.9258517034068134,0.01651513700541209,-0.001101138831585313,-0.005235929193725849,0.009947049246959671,-0.05503668478248124,0.0,0.0
2.9458917835671343,0.01647313829329266,-0.002099935605971494,-0.005037811324823526,0.009905893445116137,-0.054731483973053295,0.0,0.0
2.9659318637274548,0.01641122595545481,-0.0030956168918925154,-0.004839445756493872,0.00991827841648271,-0.05378975153481343,0.0,0.0
2.9859719438877756,0.01632971062127681,-0.0040757667089001415,-0.004640132460287504,0.009965664810318386,-0.052215533488712405,0.0,0.0
3.006012024048096,0.016229149460388267,-0.0050280580444270855,-0.004439535414871179,0.010029852270816266,-0.050338047790608895,0.0,0.0
3.0260521042084165,0.01611021761725149,-0.005946592156838831,-0.0042374879066673045,0.010102375410193721,-0.020246839057456906,0.0,0.0
3.0460921843687374,0.015984599536394146,-0.006280904042867176,-0.004050318187632743,0.009358485951728033,-0.025880413762070224,0.0,0.0
3.066132264529058,0.015850043205644804,-0.0067278165374670676,-0.0038735505082862077,0.008838383967326774,-0.029142366473382673,0.0,0.0
