time,x,x_dot,theta,theta_dot,u,x_ref,theta_ref
0.0,-0.5106688806270117,0.036379421506842535,0.007410687229610746,-0.016329956831442477,-2.703203568451961,0.0,0.0
0.02004008016032064,-0.5109982725125327,-0.016469594276051686,0.008712071983145397,0.06506923767673256,-2.4386560795038927,0.0,0.0
0.04008016032064128,-0.5122817826319174,-0.06417550596923419,0.011494880220059945,0.13914041184572742,-2.157966327730637,0.0,0.0
0.06012024048096192,-0.5144106695244537,-0.10644434462681376,0.015612424038956806,0.2058771909448431,-1.8592417646739197,0.0,0.0
0.08016032064128256,-0.5172695294711681,-0.14294299733572052,0.020915850142428277,0.2651713051735735,-1.5451751375122635,0.0,0.0
0.1002004008016032,-0.5207373023754096,-0.17338864521207265,0.027254774947569272,0.3169462402570497,-1.218306092744241,0.0,0.0
0.12024048096192384,-0.5246882187857225,-0.19754582051564146,0.034477831515504445,0.3611528283967585,-0.8812049315066339,0.0,0.0
0.1402805611222445,-0.5289927606739615,-0.21522709441195179,0.04243324282522757,0.39777056548615614,-0.5364877779337113,0.0,0.0
0.16032064128256512,-0.5335186423401516,-0.2262940833095036,0.050969434552154594,0.42680958634635113,-0.18682702942548096,0.0,0.0
0.18036072144288576,-0.5381318155699089,-0.2306586614878656,0.059935695315766674,0.44831303818060386,0.16504073210750875,0.0,0.0
0.2004008016032064,-0.5426975018419894,-0.22828431360402762,0.06918288888789276,0.4623596786063043,0.5163111294957803,0.0,0.0
0.22044088176352705,-0.5470812524502602,-0.21918753041353672,0.07856421892250276,0.46906650173049996,0.8641143074584293,0.0,0.0
0.24048096192384769,-0.5511500349304604,-0.20343912401001282,0.08793604255125125,0.46859118143742423,1.2055244729911077,0.0,0.0
0.2605210420841683,-0.5547733413047105,-0.1811653187124983,0.09715872493598089,0.46113411923648223,1.537577523956475,0.0,0.0
0.280561122244489,-0.5578243105455154,-0.1525484620402471,0.1060975228397999,0.4469398951909502,1.857297107111587,0.0,0.0
0.3006012024048096,-0.5601808545149815,-0.11782719847330445,0.11462348173075479,0.42629794454774483,2.1617288408942468,0.0,0.0
0.32064128256513025,-0.5617267736772323,-0.07729595811254261,0.12261432811176655,0.39954231905058807,2.4479817750900397,0.0,0.0
0.3406813627254509,-0.562352846350232,-0.03130363364998136,0.12995533689496092,0.36705043915971836,2.7132754814479854,0.0,0.0
0.3607214428857715,-0.5619578733940692,0.01974864780813556,0.13654015288095767,0.3292407992998369,2.954990537191853,0.0,0.0
0.3807615230460922,-0.5604496592404541,0.07541070768075737,0.14227154587405103,0.2865696496546681,3.170719651037076,0.0,0.0
0.4008016032064128,-0.5577459102187425,0.13518745108558017,0.1470620806908743,0.23952674084116332,3.3583163663701647,0.0,0.0
0.42084168336673344,-0.553775032318463,0.1985438950139749,0.15083468623467747,0.18863027719015868,3.515938224994989,0.0,0.0
0.4408817635270541,-0.548476812841264,0.264910973859947,0.15352311173720287,0.1344212751262708,3.642081526701767,0.0,0.0
0.4609218436873747,-0.5418029737213534,0.3336919559955295,0.15507226294299528,0.07745756028962011,3.735605374092811,0.0,0.0
0.48096192384769537,-0.5337175884107631,0.40426926552951664,0.15543841607345107,0.018307656522790018,3.7957435020171166,0.0,0.0
0.501002004008016,-0.5241973588237123,0.476011479352542,0.15458931245806662,-0.042455180769222674,3.8221033681805667,0.0,0.0
0.5210420841683366,-0.5132317535476223,0.5482802638045005,0.15250414135024618,-0.10425855539102283,3.814653010045104,0.0,0.0
0.5410821643286573,-0.5008230129795228,0.6204370284049727,0.1491734222863723,-0.16653595319369505,3.7736971297141513,0.0,0.0
0.561122244488978,-0.48698603089094333,0.6918491044289747,0.14459880111202106,-0.22873105871756144,3.6998446449832545,0.0,0.0
0.5811623246492986,-0.4717481248884691,0.761895300123711,0.13879277531044076,-0.29030129007901506,3.5939704651569815,0.0,0.0
0.6012024048096192,-0.4551487101452465,0.829970737161131,0.13177836447098912,-0.3507205419725825,3.4571744807513882,0.0,0.0
0.6212424849699398,-0.43723889156365836,0.8954909290794054,0.12358874069391299,-0.4094811888538069,3.290740705097386,0.0,0.0
0.6412825651302605,-0.41808098922796516,0.9578951167846611,0.11426683160921204,-0.4660954542350474,3.0960992148859003,0.0,0.0
0.6613226452905812,-0.3977480107421677,1.016648924289873,0.10386490573319336,-0.5200962938009341,2.874793069168054,0.0,0.0
0.6813627254509018,-0.37632308201031006,1.0712464365928824,0.09244414638358289,-0.5710379674805234,2.6284518126627927,0.0,0.0
0.7014028056112224,-0.35389884542850425,1.121211829090291,0.08007421662592003,-0.6184964878831435,2.358772554991864,0.0,0.0
0.721442885771543,-0.33057683155739315,1.1661006935555565,0.066832814026055,-0.6620701299932519,2.0675090159830685,0.0,0.0
0.7414829659318637,-0.3064668073607253,1.2055012098333937,0.0528052106059339,-0.7013801710060548,1.756468375674395,0.0,0.0
0.7615230460921844,-0.28168610123933674,1.2390353060694275,0.03808377057471763,-0.7360720015608133,1.4275152866973766,0.0,0.0
0.781563126252505,-0.256358902540307,1.2663599349514845,0.022767436321803725,-0.7658167126456952,1.082582004720062,0.0,0.0
0.8016032064128256,-0.2306155311259667,1.2871685707170157,0.006961171949790415,-0.7903132186006654,0.7236832677411622,0.0,0.0
0.8216432865731462,-0.20459167106181142,1.301193003207764,-0.00922464662120263,-0.8092909285496522,0.35293430101568335,0.0,0.0
0.8416833667334669,-0.1784275616103937,1.308205472570887,-0.025674905200222874,-0.8225129289510122,-0.027429866481874066,0.0,0.0
0.8617234468937875,-0.15226713855575044,1.3080211527321621,-0.0422704970299616,-0.8297795914869363,-0.4150357215547954,0.0,0.0
0.8817635270541082,-0.12625711945961177,1.3005009548069344,-0.058889146547663904,-0.8309324758851154,-0.8073552480255806,0.0,0.0
0.9018036072144289,-0.10054602777182153,1.2855545843895115,-0.07540631372682977,-0.825858358958293,-1.2016946148301053,0.0,0.0
0.9218436873747494,-0.07528315276407097,1.2631437503875287,-0.09169617755348486,-0.8144931913327549,-1.595189566060757,0.0,0.0
0.9418837675350701,-0.05061744498324504,1.2332853890412965,-0.10763269282865373,-0.7968257637584433,-1.9848093720190592,0.0,0.0
0.9619238476953907,-0.02669635025404211,1.1960547364601464,-0.12309070996404237,-0.7729008567694315,-2.367370953567647,0.0,0.0
0.9819639278557114,-0.0036645890898985983,1.1515880582071756,-0.13794714299482153,-0.7428216515389579,-2.739564407842079,0.0,0.0
1.002004008016032,0.018337107456667275,1.1000848273282937,-0.15208216692174664,-0.706751196346256,-3.0979906144641403,0.0,0.0
1.0220440881763526,0.039173290163170456,1.041809135325159,-0.16538042196512065,-0.6649127521687005,-3.4392108729586512,0.0,0.0
1.0420841683366733,0.05871509269768255,0.9770901267256046,-0.17773219961108733,-0.6175888822983338,-3.759807620046032,0.0,0.0
1.062124248496994,0.07684151809437695,0.9063212698347203,-0.18903458369195375,-0.5651192040433214,-4.056454242535556,0.0,0.0
1.0821643286573146,0.09344068441377049,0.8299583159696773,-0.19919251938011615,-0.5078967844081191,-4.3259909241393615,0.0,0.0
1.1022044088176353,0.10841100156441602,0.7485158575322769,-0.2081197840607466,-0.4463632340315226,-4.56550247415099,0.0,0.0
1.122244488977956,0.121662250962749,0.6625624699166495,-0.21573983668004373,-0.38100263096485626,-4.772393346734733,0.0,0.0
1.1422845691382766,0.13311654114018906,0.5727145088720034,-0.22198652633191915,-0.3123344825937712,-4.944454734243186,0.0,0.0
1.1623246492985972,0.14270911566170996,0.4796287260760445,-0.2268046463923745,-0.2409060030227667,-5.0799188353924425,0.0,0.0
1.1823647294589177,0.1503889946938153,0.3839939516052672,-0.23015032712123806,-0.16728403644317819,-5.177496206079827,0.0,0.0
1.2024048096192383,0.15611943793843855,0.2865221622311624,-0.2319912668562426,-0.09204698675022738,-5.236393442177137,0.0,0.0
1.222444889779559,0.15987822393076093,0.18793929961611944,-0.23230680914298524,-0.015777114337131345,-5.256310158836355,0.0,0.0
1.2424849699398797,0.16165774825280535,0.08897621610222173,-0.2310878797517109,0.06094646956371577,-5.237416084092203,0.0,0.0
1.2625250501002003,0.1614649503680623,-0.009639894237152877,-0.22833680294525247,0.13755384032292245,-5.180310812086763,0.0,0.0
1.282565130260521,0.15932108491582367,-0.10719327261193098,-0.22406702012265967,0.2134891411296393,-5.085970133956494,0.0,0.0
1.3026052104208417,0.15526135793331258,-0.20298634912555386,-0.2183027357927093,0.2882142164975177,-4.955683724837589,0.0,0.0
1.3226452905811623,0.14933445130606168,-0.29634533136254454,-0.21107851566253386,0.36121100650877225,-4.790989259845885,0.0,0.0
1.342685370741483,0.141601959697577,-0.3866245804242348,-0.20243885958954153,0.43198280364961633,-4.5936077990090745,0.0,0.0
1.3627254509018036,0.1321377633855525,-0.47320981560122466,-0.1924377685311323,0.5000545529204609,-4.3653846326995716,0.0,0.0
1.3827655310621243,0.1210273580910894,-0.5555202647231549,-0.18113831983421086,0.5649724348460733,-4.108238862699237,0.0,0.0
1.4028056112224447,0.1083671593821112,-0.63300993544891,-0.16861225968210605,0.6263030076052408,-3.824123960045449,0.0,0.0
1.4228456913827654,0.09426379495531523,-0.7051682213397985,-0.15493961570703726,0.6836321987534396,-3.515000515611149,0.0,0.0
1.442885771543086,0.07883339343994757,-0.7715200757683833,-0.14020832709347372,0.7365644306781767,-3.1828214727652147,0.0,0.0
1.4629258517034067,0.06220087367104385,-0.8316259884451859,-0.124513884298061,0.7847221397706364,-2.8295293524819147,0.0,0.0
1.4829659318637274,0.04449923394378587,-0.885081986362899,-0.10795896608895779,0.8277459104551603,-2.4570643639847924,0.0,0.0
1.503006012024048,0.025868836817888485,-0.9315198562948691,-0.09065305819307355,0.8652953947942119,-2.067381828437868,0.0,0.0
1.5230460921843687,0.006456681767339687,-0.9706077525274399,-0.07271203560655784,0.8970511293257857,-1.66247700373726,0.0,0.0
1.5430861723446894,-0.01358434450735736,-1.0020513137348523,-0.054257689689097374,0.9227172958730232,-1.244415156268321,0.0,0.0
1.56312625250501,-0.034096251884478075,-1.0255953688560357,-0.03541718158734322,0.9420254050877076,-0.815364552649188,0.0,0.0
1.5831663326653307,-0.05491677718669201,-1.0410262651106967,-0.016322405320071575,0.9547388133635822,-0.3776299213025092,0.0,0.0
1.6032064128256511,-0.07588027325081649,-1.048174803206224,0.0028907530524022035,0.960657918623689,0.06631615197381474,0.0,0.0
1.6232464929859718,-0.09681866757964346,-1.0469197164413482,0.022083269484738117,0.9596258216167957,0.5138064789704015,0.0,0.0
1.6432865731462925,-0.1175624992368555,-1.037191582860602,0.041113953284903235,0.951534190008256,0.9619597614967808,0.0,0.0
1.6633266533066131,-0.1379420395162173,-1.01897701396809,0.059840533798449225,0.9363290256772995,1.407670843576226,0.0,0.0
1.6833667334669338,-0.15778849793792804,-0.992322921085536,0.07812085407104913,0.914016013629995,1.8476130811054847,0.0,0.0
1.7034068136272544,-0.17693531039663637,-0.9573406229354162,0.09581415658053483,0.8846651254742847,2.278254879239929,0.0,0.0
1.723446893787575,-0.19521950095049345,-0.9142095276928539,0.11278243982800919,0.8484141623737178,2.695891946186881,0.0,0.0
1.7434869739478958,-0.2124831030016971,-0.8631801025601821,0.12889185886977242,0.8054709520881612,3.0966960678887,0.0,0.0
1.7635270541082164,-0.2285746197536989,-0.8045758376000893,0.1440141381094651,0.7561139619846337,3.4767801881917797,0.0,0.0
1.783567134268537,-0.24335049820159926,-0.7387939223950195,0.15802796119693086,0.7006911543732877,3.8322782899848113,0.0,0.0
1.8036072144288577,-0.25667658596732235,-0.6663043882861536,0.17082030102476012,0.639616991391463,4.159437080622544,0.0,0.0
1.8236472945891782,-0.26842953653950846,-0.5876475286093069,0.18228765286954998,0.5733675922394935,4.454714933462436,0.0,0.0
1.8436873747494988,-0.27849812644292726,-0.5034294951709402,0.19233713591868554,0.5024741524567782,4.714882147095043,0.0,0.0
1.8637274549098195,-0.28678444800406855,-0.4143160780570652,0.20088743286012067,0.4275148470717569,4.937115618983388,0.0,0.0
1.8837675350701402,-0.293204944003824,-0.3210247999877746,0.20786954381706213,0.34910554784707276,5.119080750336076,0.0,0.0
1.9038076152304608,-0.29769125567407206,-0.2243155835124015,0.21322733937345145,0.26788977781946627,5.2589939785550115,0.0,0.0
1.9238476953907815,-0.3001908629552587,-0.12498036405933086,0.2169179072001726,0.18452839133605675,5.355660802276563,0.0,0.0
1.9438877755511021,-0.30066750512485046,-0.02383210847958918,0.21891169707607736,0.09968949379523781,5.408486371845891,0.0,0.0
1.9639278557114228,-0.2991013800121678,0.07830625563413475,0.21919247898819072,0.01403909560566878,5.417458354097306,0.0,0.0
1.9839679358717435,-0.295489130070705,0.18061249707314092,0.21775713757094012,-0.07176707086253054,5.383104440508854,0.0,0.0
2.004008016032064,-0.28984363262561735,0.2822748722543803,0.21461533261598112,-0.1570902477479498,5.3064291502608905,0.0,0.0
2.024048096192385,-0.28219361884131333,0.38250068921520053,0.20978905921119978,-0.24131367023906714,5.188836175271871,0.0,0.0
2.0440881763527052,-0.272583150810121,0.4805234015596146,0.20331214202349662,-0.32384585938515714,5.032043268699512,0.0,0.0
2.064128256513026,-0.2610709884066251,0.5756081201747941,0.1952296964177292,-0.4041222802883713,4.837996598862522,0.0,0.0
2.0841683366733466,-0.24772987724669485,0.6670555579965143,0.18559758486733247,-0.4816055775198357,4.608790722887458,0.0,0.0
2.1042084168336674,-0.23264578654684015,0.7542045349927343,0.17448189101016712,-0.5557846928582673,4.346599100666374,0.0,0.0
2.124248496993988,-0.21591712137527067,0.8364332585784742,0.16195842637758479,-0.6261732316291171,4.053618611924685,0.0,0.0
2.1442885771543083,-0.19765392827473352,0.9131596550268576,0.14811227692484,-0.6923074726372398,3.73203006877343,0.0,0.0
2.164328657314629,-0.17797710707320716,0.983841060076318,0.13303738861308112,-0.7537444155879433,3.383975384754261,0.0,0.0
2.1843687374749496,-0.15701763538251926,1.0479735845343952,0.116836183947051,-0.8100602333015059,3.011550954957491,0.0,0.0
2.2044088176352705,-0.13491580623375,1.1050914574384627,0.09961919497081245,-0.8608494488119278,2.6168159454798814,0.0,0.0
2.224448897795591,-0.1118204738361083,1.1547666198820845,0.08150469308641244,-0.9057250942200009,2.2018135670659786,0.0,0.0
2.244488977955912,-0.08788829781027466,1.1966088012916816,0.06261829242584944,-0.9443200330281497,1.768602974707046,0.0,0.0
2.2645290581162323,-0.06328297260265923,1.230266260380771,0.04309250154145801,-0.976289544219572,1.3192991412416109,0.0,0.0
2.284569138276553,-0.03817442624176307,1.2554273180448081,0.023066197982235075,-1.0013151779611467,0.8561178506661292,0.0,0.0
2.3046092184368736,-0.012737971218192836,1.2718227511785118,0.0026840019212844603,-1.0191098030475307,0.3814228078208184,0.0,0.0
2.3246492985971945,0.012846609908184835,1.2792290563188835,-0.017904471657769816,-1.0294236789527138,-0.102228259331761,0.0,0.0
2.344689378757515,0.0383960605338656,1.2774725312840383,-0.038545497755162625,-1.0320513048696403,-0.5920417318838365,0.0,0.0
2.3647294589178354,0.06372474178412478,1.2664340625129589,-0.05908227233030724,-1.0268387287572307,-1.0849537762019006,0.0,0.0
2.3847695390781563,0.08864583071374933,1.2460544464812278,-0.07935609123485633,-1.0136909452274547,-1.577606917451155,0.0,0.0
2.4048096192384767,0.11297263104049765,1.216340016337416,-0.09920767074119097,-0.9925789753167313,-2.066340830969009,0.0,0.0
2.4248496993987976,0.13651999686257377,1.1773682911038053,-0.11847859485838319,-0.9635462058596109,-2.547200503611836,0.0,0.0
2.444889779559118,0.15910586319188877,1.1292933164657497,-0.13701286630147477,-0.9267135721545793,-3.0159645302480462,0.0,0.0
2.464929859719439,0.18055286972321055,1.0723503265660888,-0.154658530197775,-0.8822831948150119,-3.4681956025339638,0.0,0.0
2.4849699398797593,0.20069005632693415,1.0068593301861792,-0.1712693327944922,-0.8305401298358598,-3.8993141154085853,0.0,0.0
2.50501002004008,0.21935460070429486,0.933227218868035,-0.1867063719963174,-0.7718519600912606,-4.304694192272761,0.0,0.0
2.5250501002004007,0.2363935610416488,0.8519480168676972,-0.2008396929458708,-0.7066660474776705,-4.679779323647367,0.0,0.0
2.5450901803607215,0.25166558006720624,0.763600951277872,-0.2135497805179684,-0.6355043786048804,-5.020212371966237,0.0,0.0
2.565130260521042,0.26504250248288796,0.6688461207840873,-0.2247289019702688,-0.5589560726150189,-5.321972222659127,0.0,0.0
2.5851703406813624,0.2764108561550894,0.5684176836100729,-0.23428225742791725,-0.4776677728824236,-5.581507309388366,0.0,0.0
2.6052104208416833,0.2856731493870325,0.4631146615971526,-0.24212890352073693,-0.39233230464098445,-5.795855119581357,0.0,0.0
2.6252505010020037,0.2927489424128689,0.35378965129182327,-0.24820242614450916,-0.3036761311886116,-5.962737026218094,0.0,0.0
2.6452905811623246,0.29757566081196707,0.24133591995490655,-0.2524513513615893,-0.21244626085400722,-6.080619590382317,0.0,0.0
2.665330661322645,0.3001091311460787,0.12667351670557964,-0.25483929783797515,-0.11939732381929327,-6.148736693636555,0.0,0.0
2.685370741482966,0.30032383357607584,0.010735121499856684,-0.2553448885612142,-0.025279536161951485,-6.167071004295503,0.0,0.0
2.7054108216432864,0.29821288100069826,-0.10554762876887763,-0.2539614524144766,0.06917180733687968,-6.13629764223122,0.0,0.0
2.7254509018036073,0.2937877477992793,-0.22125666007094935,-0.25069655616334885,0.16324481255638784,-6.057696728530513,0.0,0.0
2.7454909819639277,0.28707778218917446,-0.3354982805052411,-0.24557141358905918,0.2562571287144836,-5.933044194243288,0.0,0.0
2.7655310621242486,0.27812954358804637,-0.44741193005640395,-0.23862022043957232,0.3475596574743424,-5.764491471245719,0.0,0.0
2.785571142284569,0.26700600979384,-0.5561766897103192,-0.22988946167325097,0.4365379383160666,-5.554444516344636,0.0,0.0
2.8056112224448895,0.25378569837168774,-0.6610155711076122,-0.219437231695726,0.522611498876249,-5.305451301500403,0.0,0.0
2.8256513026052104,0.23856174289027182,-0.7611977740707955,-0.20733259979449647,0.6052315950614757,-5.02010485806259,0.0,0.0
2.845691382765531,0.22144095836032285,-0.8560392264974485,-0.19365504273810266,0.6838778528196907,-4.700966628002175,0.0,0.0
2.8657314629258517,0.20254292227224643,-0.9449018044038212,-0.17849395548698652,0.7580543625558078,-4.350512615711509,0.0,0.0
2.885771543086172,0.18199908885151103,-1.0271916710367697,-0.16194824000166116,0.827285774266268,-3.971102891454391,0.0,0.0
2.905811623246493,0.15995194527335546,-1.1023571789077784,-0.14412596190839924,0.8911139046630965,-3.564973486921377,0.0,0.0
2.9258517034068134,0.13655421016828587,-1.1698867552534795,-0.12514405580839796,0.9490953050000638,-3.1342486524882927,0.0,0.0
2.9458917835671343,0.11196806721319869,-1.2293071477543593,-0.10512805267245746,1.000800156797025,-2.6809707540688956,0.0,0.0
2.9659318637274548,0.08636442020928271,-1.2801823501957987,-0.08421179732708772,1.0458127672684874,-2.2071446782066784,0.0,0.0
2.9859719438877756,0.059922150963121326,-1.3221134623080693,-0.06253712071439275,1.0837338306347486,-1.7147933883763928,0.0,0.0
3.006012024048096,0.032827357606472415,-1.3547396678324457,-0.04025343054127106,1.1141845086560846,-1.2060211455885432,0.0,0.0
3.0260521042084165,0.005272548763763152,-1.377740442135463,-0.017517185203270884,1.136812266900009,-0.6830808081730002,0.0,0.0
3.0460921843687374,-0.02254423177096692,-1.3908390267365036,0.005508780527796773,1.1512982865533827,-0.14844151813272422,0.0,0.0
3.066132264529058,-0.05042037444502304,-1.3938071337028062,0.02865610373402687,1.1573661603115049,0.395147055774429,0.0,0.0
3.0861723446893787,-0.0781497898151903,-1.386470768508363,0.051751933357961855,1.1547914811967492,0.944597918520726,0.0,0.0
3.106212424849699,-0.10552412953563806,-1.3687169860223873,0.07462017038606454,1.1434118514051343,1.496441584481421,0.0,0.0
3.12625250501002,-0.1323341559578596,-1.340501321111078,0.09708290598351338,1.1231367798724419,2.046796919512215,0.0,0.0
3.1462925851703405,-0.15837126722489767,-1.3018555633519027,0.11896204409804832,1.0939569057267473,2.591362465497377,0.0,0.0
