time,x,x_dot,theta,theta_dot,u,x_ref,theta_ref
0.0,-0.05695582064852989,-0.05005282818698449,0.08815246656444031,0.02692280125237209,2.202366115716148,0.0,0.0
0.02004008016032064,-0.0571230649206092,-0.008362213603965815,0.08796318086610268,-0.009464284916881421,2.197985698717947,0.0,0.0
0.04008016032064128,-0.05645815097300795,0.03324569738006237,0.08704749461385071,-0.04578431261259823,2.167799812186579,0.0,0.0
0.06012024048096192,-0.05497258020508962,0.07427853839591655,0.08541712373911553,-0.08151854373675885,2.1215534638218823,0.0,0.0
0.08016032064128256,-0.05268390511903541,0.11443375430271033,0.0830885668841009,-0.11642784275073112,2.059614862270481,0.0,0.0
0.1002004008016032,-0.049615592134514074,0.1534156492260669,0.08008300960053161,-0.15027786417846523,1.9824556725944384,0.0,0.0
0.12024048096192384,-0.04579684591974883,0.19093731073826214,0.07642620206717735,-0.18284037666771316,1.8906528834374765,0.0,0.0
0.1402805611222445,-0.04126239432018947,0.22672257997796766,0.07214830713891703,-0.21389474641301573,1.784881759957616,0.0,0.0
0.16032064128256512,-0.03605223641088155,0.2605078954653959,0.0672837203582297,-0.24322933903436605,1.6659078843844446,0.0,0.0
0.18036072144288576,-0.030211356534720263,0.29204399380806445,0.06187086382888182,-0.2706428264673939,1.5345805652412106,0.0,0.0
0.2004008016032064,-0.023789406647741214,0.3210974943489524,0.05595195490627218,-0.2959454461304822,1.3918260043238342,0.0,0.0
0.22044088176352705,-0.01684035939208879,0.3474523627826212,0.04957275075962384,-0.31896020733241687,1.2386411844225553,0.0,0.0
0.24048096192384769,-0.009422134052648811,0.370911266971999,0.042782269500017886,-0.3395240629802979,1.0760883133951036,0.0,0.0
0.2605210420841683,-0.0015961973627719537,0.39129683449384284,0.0356324883867087,-0.35748905566545963,0.9052897896270962,0.0,0.0
0.280561122244489,0.006572859044404529,0.40845282035882413,0.028178019528127513,-0.3727234429290593,0.7274235765319037,0.0,0.0
0.3006012024048096,0.01501776286202572,0.42224519088105955,0.020475763507075907,-0.3851128010525803,0.54371880626445,0.0,0.0
0.32064128256513025,0.02366902538244397,0.4325631260209124,0.012584541497970484,-0.39456110045527115,0.35545126172907615,0.0,0.0
0.3406813627254509,0.032455424096085074,0.4393199356820553,0.004564706783829701,-0.4009917357070391,0.16393925785170835,0.0,0.0
0.3607214428857715,0.041304502011294875,0.4424538957604898,-0.0035222634107983306,-0.4043485097314015,-0.029462099186363555,0.0,0.0
0.3807615230460922,0.050143081423434176,0.4419289706069651,-0.011614193714469454,-0.4045965151835562,-0.22336634148284595,0.0,0.0
0.4008016032064128,0.058897789957539595,0.4377354267052708,-0.019648652029713824,-0.40172291576221847,-0.41636250774387634,0.0,0.0
0.42084168336673344,0.06749559613277226,0.4298903087616331,-0.027563403693306628,-0.39573758317964014,-0.6070230617067326,0.0,0.0
0.4408817635270541,0.07586435128460138,0.4184377575914563,-0.03529687492069562,-0.3866735613694496,-0.7939130729180435,0.0,0.0
0.4609218436873747,0.08393333419842036,0.4034491456909492,-0.042788621479124746,-0.3745873279214561,-0.9756007105024617,0.0,0.0
0.48096192384769537,0.09163379431891441,0.3850230060247024,-0.049979797991459685,-0.359558825616747,-1.1506690165986886,0.0,0.0
0.501002004008016,0.09889948893455636,0.3632847307820972,-0.05681362282438893,-0.3416912416464623,-1.3177288358022277,0.0,0.0
0.5210420841683366,0.1056672093292021,0.338386019732287,-0.06323583319348992,-0.32111051845504934,-1.4754326852873243,0.0,0.0
0.5410821643286573,0.11187729057565689,0.3105040623227394,-0.06919512495092851,-0.2979645878719293,-1.6224892635774233,0.0,0.0
0.561122244488978,0.11747409944945449,0.2798404436898797,-0.07464357152885559,-0.2724223288963536,-1.757678220626021,0.0,0.0
0.5811623246492986,0.12240649489025024,0.24661977203978788,-0.07953701670306863,-0.2446722587106524,-1.8798647548763285,0.0,0.0
0.6012024048096192,0.12662825555126378,0.2110880330506775,-0.08383543621662576,-0.2149209756778566,-1.988013569940929,0.0,0.0
0.6212424849699398,0.13009846926311353,0.1735106855924874,-0.08750326385001546,-0.18339138166948482,-2.0812017193093713,0.0,0.0
0.6412825651302605,0.13278187969552374,0.13417052162051044,-0.0905096782201513,-0.15032071850679155,-2.158629894338271,0.0,0.0
0.6613226452905812,0.1346491861158795,0.09336532101778794,-0.09282884740173647,-0.11595845907925834,-2.219631768666297,0.0,0.0
0.6813627254509018,0.13567729289357663,0.05140533888485708,-0.09444012935004094,-0.08056409741522316,-2.2636810980243083,0.0,0.0
0.7014028056112224,0.13584950625000675,0.008610667821505394,-0.09532822701697913,-0.044404883346909715,-2.290396382375948,0.0,0.0
0.721442885771543,0.1351556766648664,-0.03469147925701797,-0.09548329794353755,-0.007753546327921246,-2.299543019244287,0.0,0.0
0.7414829659318637,0.13359228627499362,-0.07816951949363887,-0.09490101893359802,0.029113950496976473,-2.2910330033249986,0.0,0.0
0.7615230460921844,0.1311624814960495,-0.1214902389472058,-0.09358260712476565,0.06592059044161824,-2.2649223479018943,0.0,0.0
0.781563126252505,0.12787605191692716,-0.16432147895611746,-0.09153479933719404,0.1023903893785808,-2.2214065086424024,0.0,0.0
0.8016032064128256,0.12374935722494956,-0.2063347345988803,-0.08876979197896775,0.13825036791131434,-2.160814172286871,0.0,0.0
0.8216432865731462,0.118805204488906,-0.24720763680217833,-0.08530514400637527,0.17323239862962386,-2.0835998258375197,0.0,0.0
0.8416833667334669,0.11307267853994052,-0.2866262974482738,-0.08116364548268884,0.20707492618432208,-1.9903355437508914,0.0,0.0
0.8617234468937875,0.10658692844205753,-0.32428750489414976,-0.07637315416563564,0.23952456585265977,-1.881702360345307,0.0,0.0
0.8817635270541082,0.0993889131646235,-0.3599007638717014,-0.07096640234387046,0.2703375910882593,-1.7584820216777244,0.0,0.0
0.9018036072144289,0.09152510939400467,-0.39319018853094156,-0.06498077560091316,0.29928133714786503,-1.6215483102787787,0.0,0.0
0.9218436873747494,0.08304718457573422,-0.4238962409135227,-0.05845806524815585,0.3261355176378657,-1.4718599008568876,0.0,0.0
0.9418837675350701,0.07401163768423277,-0.451777344575072,-0.051444195224942604,0.3506935011606621,-1.3104534351923363,0.0,0.0
0.9619238476953907,0.06447941014864587,-0.4766113767793452,-0.04398892420595214,0.3727635509495229,-1.1384375528979525,0.0,0.0
0.9819639278557114,0.054515469020468665,-0.4981970564088603,-0.03614552327594704,0.392170046500255,-0.9569877037520123,0.0,0.0
1.002004008016032,0.044188364204437364,-0.5163552408015651,-0.027970429338537342,0.40875469687048493,-0.7673416284915007,0.0,0.0
1.0220440881763526,0.033569761362081806,-0.5309301421177779,-0.01952287435811865,0.42237774902093467,-0.5707952930683398,0.0,0.0
1.0420841683366733,0.022733951973888403,-0.54179046940967,-0.010864490624131744,0.43291918669934526,-0.3686988804305664,0.0,0.0
1.062124248496994,0.011757342078266246,-0.5488304947811078,-0.0020588925507218896,0.4402799036704927,-0.16245326878975158,0.0,0.0
1.0821643286573146,0.0007179210678302968,-0.5519710505217975,0.006828764428753308,0.44438284897375985,0.046495025385224126,0.0,0.0
1.1022044088176353,-0.01030528743159679,-0.5511604249713543,0.01573224614104312,0.4451740856144906,0.256658693930642,0.0,0.0
1.122244488977956,-0.021232790619869137,-0.5463751594136175,0.024584721322316067,0.4426237590636474,0.4665160341478699,0.0,0.0
1.1422845691382766,-0.031985204911610665,-0.5376207145870765,0.03331925983391425,0.43672692557990905,0.6745186265887924,0.0,0.0
1.1623246492985972,-0.04248384454004571,-0.524931981421752,0.04186934391486645,0.42750420404761,0.8791005825031466,0.0,0.0
1.1823647294589177,-0.0526513166560607,-0.5083736058007496,0.050169388169166274,0.4150022127149913,1.0786894816867094,0.0,0.0
1.2024048096192383,-0.06241211856862724,-0.4880400956283267,0.05815526326356131,0.39929375471975187,1.2717190201023498,0.0,0.0
1.222444889779559,-0.0716932321465578,-0.4640556788965285,0.06576481768659224,0.38047772115154643,1.4566432731313976,0.0,0.0
1.2424849699398797,-0.08042470982558375,-0.43657388395129715,0.07293839143614414,0.358678687477595,1.6319523608246564,0.0,0.0
1.2625250501002003,-0.08854024618202386,-0.4057768178220055,0.07961931519926649,0.33404618815611725,1.7961891834236754,0.0,0.0
1.282565130260521,-0.09597772868637555,-0.37187412521758484,0.08575438849441927,0.30675366475763943,1.947966787313721,0.0,0.0
1.3026052104208417,-0.10267976107393062,-0.33510161937775323,0.09129433038157674,0.27699709435787323,2.0859858328523493,0.0,0.0
1.3226452905811623,-0.1085941527940562,-0.295719586006279,0.0961941967156195,0.24499331670213859,2.2090515749556974,0.0,0.0
1.342685370741483,-0.11367436824333685,-0.2540107724640326,0.10041375851465817,0.2109780899519333,2.31608974265655,0.0,0.0
1.3627254509018036,-0.11787992995523527,-0.21027808559492112,0.10391783681396967,0.17520391496557527,2.4061607202343205,0.0,0.0
1.3827655310621243,-0.12117677060025227,-0.1648420322508499,0.10667659034052919,0.13793767632797613,2.4784714917516397,0.0,0.0
1.4028056112224447,-0.12353752952040975,-0.11803794600787386,0.10866575342284959,0.09945815411602042,2.5323849106476772,0.0,0.0
1.4228456913827654,-0.12494179054070251,-0.07021305101463773,0.10986682268702899,0.060053463208970176,2.5674259899846725,0.0,0.0
1.442885771543086,-0.1253762589167905,-0.02172341880439988,0.11026719221862487,0.020018476579794137,2.5832850667751623,0.0,0.0
1.4629258517034067,-0.12483487643371248,0.027069124153900816,0.10986023792724153,-0.02034771456916662,2.579817862626721,0.0,0.0
1.4829659318637274,-0.12331887480290785,0.0758000815402317,0.10864535277760934,-0.060744257481609755,2.5570426284661543,0.0,0.0
1.503006012024048,-0.12083676855468334,0.1241053124112253,0.10662793529841276,-0.10087087395982877,2.51513470959242,0.0,0.0
1.5230460921843687,-0.11740428953797127,0.1716239508356031,0.10381933431296535,-0.1404300492723703,2.454418986804319,0.0,0.0
1.5430861723446894,-0.11304426587770625,0.21800118301325155,0.10023675313536767,-0.17912905887988403,2.3753607312964995,0.0,0.0
1.56312625250501,-0.10778644877563304,0.2628908551036602,0.09590311654103174,-0.21668182971679664,2.278555450735967,0.0,0.0
1.5831663326653307,-0.10166729086190203,0.30595789568655035,0.09084690366768194,-0.25281064366749023,2.16471821158959,0.0,0.0
1.6032064128256511,-0.09472967995206863,0.3468805454916699,0.0851019497157866,-0.28724769759476654,2.0346735689988145,0.0,0.0
1.6232464929859718,-0.08702263178769223,0.38535240821882005,0.0787072185391366,-0.3197365588325002,1.8893448591747797,0.0,0.0
1.6432865731462925,-0.07860094556676889,0.4210843110461674,0.07170654833679965,-0.35003351011684797,1.7297458068260896,0.0,0.0
1.6633266533066131,-0.06952482516641013,0.45380602001793774,0.06414837123578239,-0.3779088550508629,1.5569724086719658,0.0,0.0
1.6833667334669338,-0.05985946887016093,0.4832678148124602,0.05608540747843088,-0.4031481878675754,1.3721962892906576,0.0,0.0
1.7034068136272544,-0.049674629873116216,0.5092419498522358,0.0475743343009321,-0.42555365887493896,1.1766592666302385,0.0,0.0
1.723446893787575,-0.039044149416016305,0.5315240228549954,0.03867542923196347,-0.4449452534484316,0.9716690201471058,0.0,0.0
1.7434869739478958,-0.02804546403092844,0.5499342692543931,0.02945218733251328,-0.46116209497250926,0.7585956080384105,0.0,0.0
1.7635270541082164,-0.016759088119292706,0.5643187955817868,0.019970911890316266,-0.4740637721098507,0.5388683443244177,0.0,0.0
1.783567134268537,-0.005268073015681371,0.5745507551805668,0.010300278376455203,-0.4835316756930531,0.3139734729251909,0.0,0.0
1.8036072144288577,0.006342556548541796,0.5805314782111584,0.0005108714887888718,-0.48947034438331655,0.08545033072492023,0.0,0.0
1.8236472945891782,0.017986387012127878,0.5821915231793041,-0.009325303587081973,-0.4918087537935423,-0.14511214268634232,0.0,0.0
1.8436873747494988,0.029576220092021314,0.5794916539946717,-0.019135334439663268,-0.4905015426290648,-0.37608059341964084,0.0,0.0
1.8637274549098195,0.0410246942406099,0.5724237074294294,-0.028845936757185026,-0.48553011587608785,-0.6057839314430585,0.0,0.0
1.8837675350701402,0.05224492065752837,0.5610113208459235,-0.03838400832750062,-0.4769035785157798,-0.8325219179483587,0.0,0.0
1.9038076152304608,0.06315113031637248,0.5453104829422055,-0.04767719730965274,-0.46465944910760576,-1.054575892326445,0.0,0.0
1.9238476953907815,0.07365932765422513,0.5254098668926321,-0.05665447939348725,-0.4488641041917257,-1.2702217495981574,0.0,0.0
1.9438877755511021,0.083687945738253,0.5014309042013934,-0.06524673757646622,-0.4296129091489486,-1.477745139984801,0.0,0.0
1.9639278557114228,0.09315849692094734,0.47352755913471667,-0.07338733755301845,-0.4070299988276115,-1.6754587095604374,0.0,0.0
1.9839679358717435,0.10199621227955724,0.44188576793049533,-0.08101269118558599,-0.38126768162837693,-1.861721043320117,0.0,0.0
2.004008016032064,0.1101306625619331,0.4067225141187932,-0.08806280025304199,-0.3525054533727996,-2.034956819979706,0.0,0.0
2.024048096192385,0.11749635298299686,0.36828452105318776,-0.0944817726839168,-0.3209486215437406,-2.193677553830864,0.0,0.0
2.0440881763527052,0.12403328407827456,0.32684655476388513,-0.10021830379567499,-0.2868265555879094,-2.336502195660846,0.0,0.0
2.064128256513026,0.12968747095618882,0.2827093438957133,-0.10522611567584753,-0.250390594008627,-2.462176804283613,0.0,0.0
2.0841683366733466,0.13441141371579393,0.2361971379802554,-0.10946434873525865,-0.21191165297055636,-2.5695924921539652,0.0,0.0
2.1042084168336674,0.13816451250880668,0.18765493965063698,-0.11289790059738221,-0.17167759310617825,-2.657800898376172,0.0,0.0
2.124248496993988,0.14091342170077853,0.13744545959859272,-0.1154977088024397,-0.12999041025287483,-2.726026550264431,0.0,0.0
2.1442885771543083,0.14263233878222706,0.08594585407242664,-0.11724097522690959,-0.08716332122349393,-2.773675634361116,0.0,0.0
2.164328657314629,0.14330322503472043,0.033544312624668594,-0.11811133156570285,-0.043517816939662814,-2.8003408975010258,0.0,0.0
2.1843687374749496,0.14291595639417837,-0.019363432027102598,-0.11809894660912593,0.0006192478288456413,-2.805802621355335,0.0,0.0
2.2044088176352705,0.14146840439182004,-0.07237760011791695,-0.11720057728742497,0.04491846608504742,-2.790025840216919,0.0,0.0
2.224448897795591,0.13896644841017813,-0.1250977990820953,-0.11541956648051448,0.08905054034552487,-2.7531541815856424,0.0,0.0
2.244488977955912,0.13542392169267625,-0.177126335875094,-0.11276579134465596,0.13268875679292574,-2.69550088445481,0.0,0.0
2.2645290581162323,0.13086249452940835,-0.2280713581633946,-0.10925556635793247,0.17551124933617404,-2.617537677262696,0.0,0.0
2.284569138276553,0.12531149876646325,-0.27754978814725456,-0.10491150542267935,0.2172030467626559,-2.519882268008234,0.0,0.0
2.3046092184368736,0.11880769823014672,-0.3251900268158259,-0.09976234719975909,0.2574579111460133,-2.40328521096482,0.0,0.0
2.3246492985971945,0.11139500982121787,-0.3706344204464426,-0.09384274742262436,0.29597998885673643,-2.2686168233779314,0.0,0.0
2.344689378757515,0.1031241799570248,-0.4135414932096534,-0.08719304133017329,0.332485304622553,-2.116855112198875,0.0,0.0
2.3647294589178354,0.09405242061172299,-0.45358796726509054,-0.0798589784139242,0.36670314581245456,-1.9490742456816408,0.0,0.0
2.3847695390781563,0.08424300898323188,-0.49047058142455563,-0.07189143122581422,0.3983773594054988,-1.7664354527639057,0.0,0.0
2.4048096192384767,0.07376485388427689,-0.5239077549477495,-0.06334607866216276,0.42726762818257313,-1.570179151925904,0.0,0.0
2.4248496993987976,0.06269203151356739,-0.5536411185354752,-0.05428306369486055,0.4531507483651102,-1.361618996010869,0.0,0.0
2.444889779559118,0.051103292574365716,-0.579436946960084,-0.04476662483780103,0.4758219428529763,-1.1421375767495983,0.0,0.0
2.464929859719439,0.03908154213540284,-0.6010875219481437,-0.034864700226322445,0.49509623057392893,-0.913183509512078,0.0,0.0
2.4849699398797593,0.026713293177942417,-0.618412447873021,-0.024648503022236486,0.510809860204298,-0.6762693329763838,0.0,0.0
2.50501002004008,0.014088094549171344,-0.6312599314385536,-0.014192067059114497,0.5228217981560994,-0.43297059885100575,0.0,0.0
2.5250501002004007,0.0012979336733503714,-0.6395080437910486,-0.003571761615812734,0.5310152721650881,-0.18492361612392977,0.0,0.0
2.5450901803607215,-0.01156338501217391,-0.6430659342762141,0.007134224397197183,0.5352993006504958,0.06617626236800461,0.0,0.0
2.565130260521042,-0.024400885060862017,-0.6418750024344053,0.017846428361561986,0.5356101982182402,0.3185781376173078,0.0,0.0
2.5851703406813624,-0.03711908486672602,-0.6359099902932002,0.028484688102009194,0.5319129870223605,0.570480740631917,0.0,0.0
2.6052104208416833,-0.049622684070658146,-0.6251799601966062,0.038968741218798134,0.524202655839447,0.820039872262026,0.0,0.0
2.6252505010020037,-0.06181726633715935,-0.6097291133250604,0.04921884525911436,0.5125052020158112,1.06537848572519,0.0,0.0
2.6452905811623246,-0.07361001429973561,-0.5896373981288131,0.059156413088944704,0.496878391491517,1.3045996544957044,0.0,0.0
2.665330661322645,-0.08491043139294491,-0.5650208546604646,0.06870465661063896,0.47741217608471265,1.5358025018025092,0.0,0.0
2.685370741482966,-0.09563106420737938,-0.5360316407217233,0.07778923091333484,0.45422871513479435,1.7571009778916433,0.0,0.0
2.7054108216432864,-0.10568821799089753,-0.5028576891759079,0.08633887011774553,0.42748196022053475,1.9666451658395752,0.0,0.0
2.7254509018036073,-0.11500265704897543,-0.465721952903895,0.09428600564865366,0.39735677654540624,2.1626445890158736,0.0,0.0
2.7454909819639277,-0.12350028114186375,-0.4248812046444156,0.10156735748916433,0.3640675920255336,2.3433927984441736,0.0,0.0
2.7655310621242486,-0.13111276860268964,-0.3806243730412942,0.10812448917362653,0.32785658422311,2.5072923542755206,0.0,0.0
2.785571142284569,-0.13777817686251093,-0.3332704129910648,0.11390431787225966,0.288991434931656,2.6528792003184187,0.0,0.0
2.8056112224448895,-0.14344149140073165,-0.2831657269110362,0.11885957189603048,0.24776270118854132,2.778845380527473,0.0,0.0
2.8256513026052104,-0.148055114853194,-0.230681172623118,0.12294918926475437,0.2044808684361941,2.884059073085815,0.0,0.0
2.845691382765531,-0.15157928908884855,-0.1762087117827275,0.12613865256845372,0.1594731651849679,2.9675810260899587,0.0,0.0
2.8657314629258517,-0.15398244446330178,-0.12015776872266144,0.12840025712262498,0.11308022770856327,3.028676664691352,0.0,0.0
2.885771543086172,-0.15524147210082076,-0.0629513818759485,0.12971331126621916,0.06565270717970853,3.0668233897714865,0.0,0.0
2.905811623246493,-0.15534191685067714,-0.005022237492818195,0.13006426946184893,0.017547909781488895,3.0817128812864505,0.0,0.0
2.9258517034068134,-0.15427809040032966,0.05319132251737305,0.12944680051679486,-0.030873447252703613,3.0732485284947564,0.0,0.0
2.9458917835671343,-0.15205310579417297,0.11124923030783468,0.12786179464738198,-0.0792502934706435,3.0415384051561083,0.0,0.0
2.9659318637274548,-0.14867883619631822,0.16871347989273766,0.12531731417501582,-0.12722402361830837,2.9868844633661613,0.0,0.0
2.9859719438877756,-0.14417580205930036,0.22515170685089342,0.12182849331380273,-0.17444104306065483,2.9097688130937702,0.0,0.0
3.006012024048096,-0.13857299185186978,0.2801405103715288,0.11741739276328865,-0.22055502752570427,2.810838071740353,0.0,0.0
3.0260521042084165,-0.13190762212096818,0.33326848654507957,0.11211281466441717,-0.2652289049435741,2.6908868041464733,0.0,0.0
3.0460921843687374,-0.12422484290857758,0.38413896061953,0.10595008295208846,-0.30813658561643537,2.550840977870308,0.0,0.0
3.066132264529058,-0.11557739445588155,0.4323724226348012,0.09897079334081473,-0.3489644805636868,2.3917426921780995,0.0,0.0
3.0861723446893787,-0.10602522057835406,0.47760869387637495,0.09122253593900208,-0.38741287009063247,2.2147357073121605,0.0,0.0
3.106212424849699,-0.09563504376269188,0.5195088407831091,0.08275859281092673,-0.4231971564037672,2.021054225601929,0.0,0.0
3.12625250501002,-0.08447990577947856,0.5577568991606661,0.07363761098384233,-0.4560490913542204,1.8120134063930966,0.0,0.0
