time,x,x_dot,theta,theta_dot,u,x_ref,theta_ref
0.0,1.459190348066346,0.07106050298641181,0.12440935951373688,-0.04771072771670468,9.999999999999996,0.0,0.0
0.02004008016032064,1.464474181776174,0.2641916854914039,0.11843876671835664,-0.2985296397690122,9.999999161345523,0.0,0.0
0.04008016032064128,1.473622903126983,0.4574360675404467,0.10740941130121881,-0.5514677708568918,9.999999999400776,0.0,0.0
0.06012024048096192,1.4866407186097925,0.6508907741404771,0.09124342424146059,-0.8082993529879107,9.360240915687882,0.0,0.0
0.08016032064128256,1.5032840958075704,0.8321688598888983,0.07020053226237223,-1.0521445989544178,8.353987850530903,0.0,0.0
0.1002004008016032,1.5231677101278183,0.9941807160123983,0.04472446678678424,-1.2738032737793996,7.285420471876542,0.0,0.0
0.12024048096192384,1.545882484452439,1.1357387162310388,0.015271285825367343,-1.4726590480708448,6.165573158925941,0.0,0.0
0.1402805611222445,1.570999454724676,1.2558485136118454,-0.017692782924299894,-1.6482034374833618,4.992096444007794,0.0,0.0
0.16032064128256512,1.598068559094189,1.3534552184756565,-0.05368672898042692,-1.7996973028063517,3.7598675702371493,0.0,0.0
0.18036072144288576,1.6266165183515653,1.4273979628688165,-0.09220970699620004,-1.9261489007886563,2.4635743277166418,0.0,0.0
0.2004008016032064,1.6561448364787523,1.4764159063593478,-0.1327371482931485,-2.026372064847423,1.0989596103339299,0.0,0.0
0.22044088176352705,1.6861284129443062,1.4991788232776964,-0.17471876562527247,-2.0990808666061986,-0.33621605963235335,0.0,0.0
0.24048096192384769,1.7160151268410762,1.494335694838505,-0.21757887948276833,-2.1430056928747936,-1.8412977126037922,0.0,0.0
0.2605210420841683,1.7452266925209023,1.4605782839913128,-0.26071926622663805,-2.1570193371934865,-3.4118814275222276,0.0,0.0
0.280561122244489,1.773161048712731,1.3967178095914332,-0.30352451388232426,-2.140262382784311,-5.038914855357981,0.0,0.0
0.3006012024048096,1.799196535014826,1.30177431510475,-0.34536970213423684,-2.092259412595629,-6.707661447437904,0.0,0.0
0.32064128256513025,1.822698146093364,1.1750805539268976,-0.3856301467412068,-2.0130222303484993,-8.39644983723045,0.0,0.0
0.3406813627254509,1.8430262342747903,1.0164044090713176,-0.42369298952808665,-1.9031421393439922,-9.999999999978295,0.0,0.0
0.3607214428857715,1.8595771171208082,0.8275441423008953,-0.4590101714648452,-1.7658590968379277,-9.999999999999996,0.0,0.0
0.3807615230460922,1.872366626006392,0.6394754442791906,-0.49187602425095867,-1.6432926393056735,-9.999999999999167,0.0,0.0
0.4008016032064128,1.8814094225396,0.4521398266604003,-0.5225664446457501,-1.5345210197395722,-9.999999999998733,0.0,0.0
0.42084168336673344,1.8867189975240017,0.265478749220084,-0.5513403195455072,-1.4386937449878592,-9.999999999999877,0.0,0.0
0.4408817635270541,1.888307713908781,0.07943581923896101,-0.5784410866391921,-1.3550383546842437,-10.0,0.0,0.0
0.4609218436873747,1.8861868758502187,-0.10604190292810964,-0.6040983617091172,-1.2828637534962564,-9.999999999999392,0.0,0.0
0.48096192384769537,1.8803668112954635,-0.2910032277377669,-0.6285295860893046,-1.2215612190093719,-10.0,0.0,0.0
0.501002004008016,1.8708569593744913,-0.4754925960486147,-0.6519416643154705,-1.1706039113082904,-10.0,0.0,0.0
0.5210420841683366,1.8576659566562659,-0.659550135911265,-0.674532573927821,-1.1295454806175207,-10.0,0.0,0.0
0.5410821643286573,1.840801718251174,-0.8432119202545962,-0.6964929378341636,-1.09801819531713,-9.999999999999938,0.0,0.0
0.561122244488978,1.820271511032855,-1.026510360915955,-0.718007555490965,-1.0757308828400702,-9.999999999999682,0.0,0.0
0.5811623246492986,1.796082017069422,-1.2094746981716398,-0.7392568930928698,-1.0624668800952395,-9.999999999999698,0.0,0.0
0.6012024048096192,1.7682393858167327,-1.3921315626344646,-0.7604185354840184,-1.058082119557427,-9.999999999999998,0.0,0.0
0.6212424849699398,1.7367492738217654,-1.5745055997483604,-0.7816686039873446,-1.0625034251663097,-9.999999999999918,0.0,0.0
0.6412825651302605,1.7016168706735086,-1.7566201574128386,-0.803183145054682,-1.0757270533668724,-9.999999999999993,0.0,0.0
0.6613226452905812,1.6628469097637324,-1.9384980454888068,-0.8251394947539638,-1.0978174849640887,-10.0,0.0,0.0
0.6813627254509018,1.6204436621079394,-2.120162382789652,-0.8477176237526781,-1.1289064499357182,-9.999999999999922,0.0,0.0
0.7014028056112224,1.574410911044946,-2.3016375531496753,-0.8711014667073116,-1.1691921477316711,-9.999999999999998,0.0,0.0
0.721442885771543,1.5247519050930172,-2.4829502975964397,-0.8954802388734531,-1.2189386083070735,-6.497142915635231,0.0,0.0
0.7414829659318637,1.4727778990883307,-2.5987003002343236,-0.9222760827915458,-1.3397921959046355,1.4449148987424856,0.0,0.0
0.7615230460921844,1.4214478944475148,-2.566500232040796,-0.9543383412216402,-1.6031129215047186,-9.453817490435481,0.0,0.0
0.781563126252505,1.3666899390899496,-2.737897767878262,-0.9882243381946215,-1.6942998486490652,-0.1702579948694325,0.0,0.0
0.8016032064128256,1.31194956442249,-2.73701873337298,-1.0270318640527882,-1.9403762929083332,-8.756865895769835,0.0,0.0
0.8216432865731462,1.2540265045597216,-2.896152993138424,-1.0683998040437337,-2.0683969995472746,-1.5790741196579372,0.0,0.0
0.8416833667334669,1.1955652841509443,-2.923061020438862,-1.114529474257407,-2.306483510683665,-9.935822010603122,0.0,0.0
0.8617234468937875,1.1334616745501305,-3.1051804800406866,-1.1635285934701372,-2.4499559606365047,-4.10124308861185,0.0,0.0
0.8817635270541082,1.0698474957714885,-3.180708938932102,-1.2170264459605353,-2.674892624519912,-9.999999999999908,0.0,0.0
0.9018036072144289,1.0025314487949124,-3.3658023488288067,-1.2741142316573586,-2.8543892848411683,-7.12245259607154,0.0,0.0
0.9218436873747494,0.9325428663078325,-3.499429124353998,-1.33565038103367,-3.0768074688155687,-9.999999997681192,0.0,0.0
0.9418837675350701,0.8587971567395283,-3.6872854784152076,-1.4015889324441622,-3.296927570524605,-8.718830234838011,0.0,0.0
0.9619238476953907,0.781724063262403,-3.8536546738562674,-1.4724799109294806,-3.5445489242659254,-8.939175482858154,0.0,0.0
0.9819639278557114,0.7011968547207195,-4.0263604270841755,-1.54871058253269,-3.8115335801604586,-7.9254311181519945,0.0,0.0
1.002004008016032,0.6175293869978575,-4.183373386143097,-1.6307121893017167,-4.10008033845134,-7.053217070598018,0.0,0.0
1.0220440881763526,0.530975342335757,-4.327702233105023,-1.7188386892604868,-4.406324997938507,-5.517257988057639,0.0,0.0
1.0420841683366733,0.44202334797199505,-4.4475997181880995,-1.8133074625196361,-4.723438662957471,-3.9059396507509088,0.0,0.0
1.062124248496994,0.3511875615330871,-4.541789321945396,-1.9141587498732164,-5.042564367679017,-1.7855588750707447,0.0,0.0
1.0821643286573146,0.25917337599841217,-4.600709276733748,-2.021138051108819,-5.348965061780136,0.21581169456928473,0.0,0.0
1.1022044088176353,0.16665818502373334,-4.625759548733941,-2.133734707528629,-5.629832820990501,2.0539159874393835,0.0,0.0
1.122244488977956,0.07428472346486951,-4.618673077943191,-2.2511875338954157,-5.872641318339329,3.8135637001432223,0.0,0.0
1.1422845691382766,-0.017298726930628727,-4.579172519774912,-2.372463161158709,-6.0637813631646535,6.170761981077073,0.0,0.0
1.1623246492985972,-0.10717672479332897,-4.493899893135012,-2.4959888876842355,-6.176286326276332,8.768164676378653,0.0,0.0
1.1823647294589177,-0.19429187028363984,-4.355757274515543,-2.6197421679578703,-6.187664013681733,9.999999999998803,0.0,0.0
1.2024048096192383,-0.27806178825764133,-4.188495898700075,-2.7420774695928682,-6.1167650817499055,9.999999999997584,0.0,0.0
1.222444889779559,-0.35835458132714154,-4.014639653475011,-2.8618965474474733,-5.9909538927302615,10.0,0.0,0.0
1.2424849699398797,-0.4350346261198135,-3.8340022396335964,-2.9781325865932797,-5.8118019572903235,10.0,0.0,0.0
1.2625250501002003,-0.5079729260338238,-3.6469149957005174,-3.08979055594957,-5.582898467814525,10.0,0.0,0.0
1.282565130260521,-0.5770560319015667,-3.454155293387145,-3.1959813685349023,-5.309540629266598,10.0,0.0,0.0
1.3026052104208417,-0.6421922692502557,-3.2568118674344513,-3.295944876772021,-4.998175411855941,9.999999999998343,0.0,0.0
1.3226452905811623,-0.7033147023109354,-3.056121653033982,-3.3890595457805235,-4.655733450425123,10.0,0.0,0.0
1.342685370741483,-0.7603810028982565,-2.853315029366054,-3.474839650136063,-4.289005217776979,9.999999999966667,0.0,0.0
1.3627254509018036,-0.8133709250622448,-2.6494961081994184,-3.5529229640238715,-3.904165694390436,10.0,0.0,0.0
1.3827655310621243,-0.8622823063860511,-2.445569066190311,-3.623052731164278,-3.506488357020314,10.0,0.0,0.0
1.4028056112224447,-0.9071264647144552,-2.242207916420211,-3.6850574126823754,-3.100234075904864,9.999999999999998,0.0,0.0
1.4228456913827654,-0.94792365135693,-2.039859332123739,-3.7388308241427075,-2.688670573016607,9.999999998828473,0.0,0.0
1.442885771543086,-0.9846989733642152,-1.8387661003642577,-3.7843142638184677,-2.274171983788006,10.0,0.0,0.0
1.4629258517034067,-1.0174789820741574,-1.639000435497108,-3.8214813916150314,-1.8583563898281854,10.0,0.0,0.0
1.4829659318637274,-1.0462889723748081,-1.4404995150325293,-3.8503260431033235,-1.4422325744145932,9.999999999996293,0.0,0.0
1.503006012024048,-1.0711509471401193,-1.2430987382655525,-3.8708528393434434,-1.0263398120059892,9.999999999860222,0.0,0.0
1.5230460921843687,-1.0920821608928162,-1.046560687634844,-3.8830703166675953,-0.6108738662076002,9.999999999969521,0.0,0.0
1.5430861723446894,-1.109094150200992,-0.8505994654087843,-3.886986283740485,-0.19579835364450238,9.999999999896662,0.0,0.0
1.56312625250501,-1.1221921724750894,-0.6549011137048762,-3.882605163552209,0.21905600941380415,9.999999999999982,0.0,0.0
1.5831663326653307,-1.1313750004004344,-0.4591413962672444,-3.8699271613337984,0.633900110920517,9.999999999999998,0.0,0.0
1.6032064128256511,-1.1366350502661424,-0.2630024932854018,-3.848949196181355,1.048898257622174,9.999999998955007,0.0,0.0
1.6232464929859718,-1.1379588551352473,-0.06619024345524296,-3.8196676338629976,1.4640781159178606,9.999999999962908,0.0,0.0
1.6432865731462925,-1.135327925212595,0.1315464961326176,-3.782082953570378,1.8792340146309616,9.999999999603633,0.0,0.0
1.6633266533066131,-1.128720064574035,0.3303930319280045,-3.736206562798048,2.2938195386165163,9.999999999999996,0.0,0.0
1.6833667334669338,-1.1181112306014198,0.5304416986307572,-3.682070024981122,2.706826890846301,9.999999999999996,0.0,0.0
1.7034068136272544,-1.1034780222407592,0.7316604180330318,-3.6197369540626587,3.1166535459231564,9.999999997790239,0.0,0.0
1.723446893787575,-1.0848008541904262,0.9338584025166501,-3.5493177122278663,3.520962091739622,9.999999984425479,0.0,0.0
1.7434869739478958,-1.0620678020503227,1.1366526070051777,-3.4709867603475986,3.916547594013393,9.999999998160476,0.0,0.0
1.7635270541082164,-1.0352789744474893,1.3394413801416731,-3.385001993496332,4.299238342563347,9.999999998093724,0.0,0.0
1.783567134268537,-1.0044510771189554,1.5413948664266879,-3.2917246203372064,4.663868657956274,9.999999993920904,0.0,0.0
1.8036072144288577,-0.9696215977691591,1.7414739674898156,-3.1916371855748045,5.004371738120084,9.99999999359714,0.0,0.0
1.8236472945891782,-0.9308518147007152,1.938489153422198,-3.085356426717147,5.314037942882885,9.999999999999998,0.0,0.0
1.8436873747494988,-0.888227715427905,2.1312049636405095,-2.9736372269146347,5.5859599901256125,9.999999999999998,0.0,0.0
1.8637274549098195,-0.8418580239870217,2.3184845720441682,-2.8573644846945463,5.813637111004417,9.999999999999458,0.0,0.0
1.8837675350701402,-0.7918689563980262,2.4994533794497737,-2.7375315762715773,5.991645421148456,9.999999999999991,0.0,0.0
1.9038076152304608,-0.7383960094561062,2.6736473470960025,-2.615206986211666,6.116229502995569,9.999999999999693,0.0,0.0
1.9238476953907815,-0.6815738362325885,2.8411086611758867,-2.4914936889211576,6.1856648645254095,9.999999999999998,0.0,0.0
1.9438877755511021,-0.6215257809145237,3.0024027659032373,-2.3674877149715385,6.200298697480956,9.999999999999998,0.0,0.0
1.9639278557114228,-0.5583547159540232,3.158553248025023,-2.244242186463693,6.162276425392284,9.999999999999892,0.0,0.0
1.9839679358717435,-0.4921364338444532,3.310914105478499,-2.1227410821734294,6.075055214513176,9.999999999592276,0.0,0.0
2.004008016032064,-0.4229161882703759,3.461012278703865,-2.0038840898574177,5.942849615800585,9.162526256994816,0.0,0.0
2.024048096192385,-0.3510165573718475,3.594981544926421,-1.8886752333823453,5.760442823753623,5.4889015718334875,0.0,0.0
2.0440881763527052,-0.2777643567031087,3.6626100334369425,-1.7784145757981324,5.513032879210645,0.39078600992555046,0.0,0.0
2.064128256513026,-0.20496598421248446,3.6399186245312096,-1.6740442829428586,5.218514642763695,-6.201850016099562,0.0,0.0
2.0841683366733466,-0.13494472927051293,3.5010627470985773,-1.5759480896174618,4.904809666269835,-9.999999999999998,0.0,0.0
2.1042084168336674,-0.06899861844164344,3.297305541443474,-1.4837596170618237,4.609423627781903,-9.999999999999998,0.0,0.0
2.124248496993988,-0.007052642977703076,3.0972987731970183,-1.3969039750785883,4.342782099161765,-9.999999999999998,0.0,0.0
2.1442885771543083,0.0509567228800896,2.900468292889634,-1.3148150240216288,4.10444755284798,-9.999999999999998,0.0,0.0
2.164328657314629,0.10508186484859686,2.706257098425363,-1.2369366450528114,3.8939189484408714,-9.999999644450012,0.0,0.0
2.1843687374749496,0.15536476366410118,2.5141449407752154,-1.162722700566393,3.710697224320926,-9.093961575056715,0.0,0.0
2.2044088176352705,0.2021709610404655,2.3403098688182156,-1.0918343020609802,3.544419925270641,-6.001002834368224,0.0,0.0
2.224448897795591,0.24666809090883043,2.2248564934182467,-1.0245657576470222,3.3634272206979015,-3.176701098238717,0.0,0.0
2.244488977955912,0.28993015545595985,2.1631032273564714,-0.9613567005183304,3.1604528564345875,-0.8488779662937862,0.0,0.0
2.2645290581162323,0.3328524051127422,2.1461124828391185,-0.9026744621391798,2.9341119189575338,0.9398447746510858,0.0,0.0
2.284569138276553,0.37613280675560284,2.164020082143031,-0.8489376735287151,2.686839430523237,2.2544092985544113,0.0,0.0
2.3046092184368736,0.42029313042649585,2.208016183544649,-0.8004831407033162,2.4227266412699477,3.170394418537305,0.0,0.0
2.3246492985971945,0.4657045637283506,2.270571665092738,-0.7575520224539761,2.146555912467,3.7532764328018624,0.0,0.0
2.344689378757515,0.5126103500929929,2.3452893182321177,-0.7202862926956333,1.863286487917141,4.0541882974603585,0.0,0.0
2.3647294589178354,0.5611438280161406,2.4266738961573826,-0.688730542280125,1.577787520775414,4.112076438170428,0.0,0.0
2.3847695390781563,0.6113425387562172,2.50993553700383,-0.6628368049390744,1.2946868670525313,3.956855550582292,0.0,0.0
2.4048096192384767,0.6631594221151658,2.590844167947427,-0.6424711887579388,1.018280809056777,3.6120207627260768,0.0,0.0
2.4248496993987976,0.7164719285141387,2.6656253199486444,-0.6274215365160436,0.7524826120947619,3.096501563304238,0.0,0.0
2.444889779559118,0.7710896177660469,2.7308844625954123,-0.6174055513492651,0.500799258338926,2.4259371429337504,0.0,0.0
2.464929859719439,0.8267606294888894,2.783550586142124,-0.6120789866883589,0.26632823304530795,1.6135960964398979,0.0,0.0
2.4849699398797593,0.883177307055354,2.8208338783232336,-0.6110436543271535,0.05176661806027458,0.671098715419688,0.0,0.0
2.50501002004008,0.9399812077592077,2.840195035192683,-0.6138551389484465,-0.1405742310646486,-0.39092749769555624,0.0,0.0
2.5250501002004007,0.9967677240968709,2.8393258168831577,-0.6200302210250653,-0.3087541038309457,-1.5622613554925788,0.0,0.0
2.5450901803607215,1.05309052400453,2.8161399953829624,-0.6290540529969127,-0.4511915985923697,-2.8324570351796856,0.0,0.0
2.565130260521042,1.1084660370012949,2.7687756498382345,-0.6403871747114059,-0.5666560857246572,-4.19020754124091,0.0,0.0
2.5851703406813624,1.1623782125894242,2.6956087794064674,-0.6534724388771326,-0.6542632082863333,-5.622638979142707,0.0,0.0
2.6052104208416833,1.2142837985251203,2.5952792967848057,-0.667741911238354,-0.7134736180610709,-7.114478110955607,0.0,0.0
2.6252505010020037,1.2636184297294109,2.46673156021453,-0.6826238269165457,-0.7440957839095842,-8.647016512956558,0.0,0.0
2.6452905811623246,1.3098038927874307,2.309273152900989,-0.6975497470370591,-0.7462960060256699,-9.99999999999977,0.0,0.0
2.665330661322645,1.352331582778556,2.1263844995562673,-0.7120478269487367,-0.7249039955838791,-9.999999999999998,0.0,0.0
2.685370741482966,1.391206130604913,1.9437273913178545,-0.7262397220065745,-0.7095947528918903,-10.0,0.0,0.0
2.7054108216432864,1.4264318667736107,1.76128680843488,-0.7402442263979941,-0.7002252195709833,-9.999999999999911,0.0,0.0
2.7254509018036073,1.4580128615296113,1.5790497378000259,-0.7541782581470939,-0.6967015874549873,-10.0,0.0,0.0
2.7454909819639277,1.485952958427245,1.3970048448816874,-0.7681578209978767,-0.6989781425391376,-9.99999999999931,0.0,0.0
2.7655310621242486,1.5102558012763294,1.2151421424542128,-0.78229894947747,-0.707056423979668,-9.999999999999428,0.0,0.0
2.785571142284569,1.5309248542429807,1.0334526483325688,-0.7967186431935301,-0.7209846858030039,-10.0,0.0,0.0
2.8056112224448895,1.5479634146916885,0.851928022435388,-0.8115357960793251,-0.7408576442897491,-10.0,0.0,0.0
2.8256513026052104,1.561374618123047,0.6705601715679205,-0.8268721258716161,-0.7668164896145447,-9.99999999999942,0.0,0.0
2.845691382765531,1.5711614342873266,0.48934080821398046,-0.8428531085869174,-0.7990491357650686,-10.0,0.0,0.0
2.8657314629258517,1.5773266532325314,0.3082609472602401,-0.8596089221397905,-0.837790677643649,-9.999999999999838,0.0,0.0
2.885771543086172,1.5798728596701572,0.12731032188129385,-0.877275402505029,-0.8833240182619256,-10.0,0.0,0.0
2.905811623246493,1.5788023936052455,-0.05352330324558255,-0.8959950149416301,-0.9359806218300565,-9.999999999997149,0.0,0.0
2.9258517034068134,1.5741172946723891,-0.23425494664281785,-0.9159178417446293,-0.9961413401499578,-8.041035077022194,0.0,0.0
2.9458917835671343,1.5665500507808814,-0.37836219457538617,-0.9378698461159966,-1.0976002185683607,-9.999999999999883,0.0,0.0
2.9659318637274548,1.5553700428582444,-0.5590003961318448,-0.9613564726109075,-1.1743313247455462,-3.772669944707018,0.0,0.0
2.9859719438877756,1.542894028731559,-0.6238007063342806,-0.9885494321048967,-1.359647974699457,-10.0,0.0,0.0
3.006012024048096,1.5268017452396352,-0.8046141745961816,-1.017669444203616,-1.4560006049359724,-5.216441811453934,0.0,0.0
3.0260521042084165,1.5088644801915205,-0.8968632524057373,-1.0503365561653097,-1.633355598084685,-9.999999999999877,0.0,0.0
3.0460921843687374,1.48730293777925,-1.0780771206135245,-1.0854001872617776,-1.7531815548233853,-9.999999999999998,0.0,0.0
3.066132264529058,1.4621119955964794,-1.2595471091385255,-1.1231229662636766,-1.886138950094947,-9.999999999994497,0.0,0.0
3.0861723446893787,1.4332841753520373,-1.441391012222106,-1.163783035166807,-2.033003445156523,-10.0,0.0,0.0
3.106212424849699,1.4008091379968501,-1.6237518677593585,-1.2076750039199606,-2.194598437657678,-9.9999999999998,0.0,0.0
3.12625250501002,1.364673094217081,-1.8068021889884582,-1.25511078899835,-2.3717892539194616,-9.99999999998792,0.0,0.0
3.1462925851703405,1.3248581281676413,-1.9907483024719892,-1.3064203029407406,-2.5654756971195343,-10.0,0.0,0.0
3.1663326653306614,1.2813414383647541,-2.1758344901443523,-1.3619519521705625,-2.7765824614910923,-10.0,0.0,0.0
3.186372745490982,1.2340945093076658,-2.3623464528544127,-1.422072884446834,-3.0060466138135706,-10.0,0.0,0.0
3.2064128256513023,1.1830822421163443,-2.5506133595660807,-1.4871689002866124,-3.2548007919889153,-10.0,0.0,0.0
3.226452905811623,1.1282620941894512,-2.7410073963446493,-1.5576438968846338,-3.52374982990107,-10.0,0.0,0.0
3.2464929859719436,1.0695833091239988,-2.9339392532726163,-1.6339186365834903,-3.8137369849428318,-10.0,0.0,0.0
3.2665330661322645,1.006986362058937,-3.1298473532530933,-1.7164285078436257,-4.125493563006763,-9.999999999968729,0.0,0.0
3.286573146292585,0.9404028058887123,-3.329177808511233,-1.8056197524957938,-4.459562232608411,-9.999999999999782,0.0,0.0
