time,x,x_dot,theta,theta_dot,u,x_ref,theta_ref
0.0,0.7909448659071412,-0.037237145555513676,-0.15152116045534908,-0.03528169567717447,-0.2761569182875817,0.0,0.0
0.02004008016032064,0.790135233669689,-0.040481611872613676,-0.1530176204922329,-0.07482300184419047,-0.5936340664289557,0.0,0.0
0.04008016032064128,0.7891374320210444,-0.04989008243222972,-0.15513097537332182,-0.10566774405444686,-0.9089479728220458,0.0,0.0
0.06012024048096192,0.787829199720011,-0.06541161505166718,-0.1576925118426197,-0.12807682346489405,-1.2209658549119728,0.0,0.0
0.08016032064128256,0.7860896970544871,-0.08697513327619699,-0.16053838552057278,-0.14229368389765346,-1.5258655742790435,0.0,0.0
0.1002004008016032,0.7838009545863825,-0.11443712340522408,-0.1635108302895379,-0.14862223844825456,-1.8204373491975696,0.0,0.0
0.12024048096192384,0.7808490820764263,-0.1475936254978103,-0.16645902777700955,-0.14740987437358274,-2.1015570174561757,0.0,0.0
0.1402805611222445,0.7771254430833019,-0.18618194965622498,-0.16923994676110832,-0.13904594920493882,-2.366208853928246,0.0,0.0
0.16032064128256512,0.7725277867041348,-0.22988281895835283,-0.17171914601490323,-0.1239599626897456,-2.6115256026059415,0.0,0.0
0.18036072144288576,0.7669613213456328,-0.2783232679251012,-0.17377152535386367,-0.10261896694802185,-2.8348315572282177,0.0,0.0
0.2004008016032064,0.7603397143860473,-0.33108034797927144,-0.17528200910027325,-0.07552418732047853,-3.0336859328447763,0.0,0.0
0.22044088176352705,0.752586001632912,-0.3876856376567645,-0.17614614702457668,-0.043206896215170654,-3.2059237548357853,0.0,0.0
0.24048096192384769,0.7436333915776587,-0.44763050276266314,-0.17627061986923873,-0.006223642233102025,-3.3496914875183434,0.0,0.0
0.2605210420841683,0.7334259515734427,-0.5103720002108018,-0.1755736396431763,0.034849011303120944,-3.463474896306184,0.0,0.0
0.280561122244489,0.7219191660941837,-0.5753392739629465,-0.173985238735051,0.07942004540626366,-3.546117176847608,0.0,0.0
0.3006012024048096,0.7090803609529808,-0.6419402570601471,-0.17144744619468832,0.12688962701813422,-3.5968261392494845,0.0,0.0
0.32064128256513025,0.6948889914742171,-0.7095684739381819,-0.16791435389213458,0.17665461512768732,-3.6151701198463586,0.0,0.0
0.3406813627254509,0.6793367967914573,-0.777609734137991,-0.1633520792986261,0.22811372967542282,-3.6010632023307365,0.0,0.0
0.3607214428857715,0.6624278263452336,-0.8454485223111871,-0.15773863499749083,0.28067221505676354,-3.554741158392426,0.0,0.0
0.3807615230460922,0.6441783479793789,-0.912473918292735,-0.15106371745630967,0.3337458770590578,-3.476730176174405,0.0,0.0
0.4008016032064128,0.6246166495477372,-0.9780849215820832,-0.1433284289064984,0.3867644274905626,-3.3678108733136423,0.0,0.0
0.42084168336673344,0.6037827474993187,-1.0416951024209267,-0.13454494632699612,0.4391741289751143,-3.228980266564558,0.0,0.0
0.4408817635270541,0.5817280164593694,-1.1027365519974646,-0.12473615056751873,0.4904397879738698,-3.061414303370291,0.0,0.0
0.4609218436873747,0.5585147534066276,-1.160663152637094,-0.11393522671882522,0.5400461924346751,-2.8664332899282616,0.0,0.0
0.48096192384769537,0.5342156887786095,-1.2149532314009042,-0.10218524415688601,0.5874991280969607,-2.6454721302690984,0.0,0.0
0.501002004008016,0.5089134548865321,-1.2651116946038716,-0.08953872151157352,0.6323261322656244,-2.400056780257371,0.0,0.0
0.5210420841683366,0.4827000195907364,-1.3106717647897823,-0.07605717841314531,0.6740771549214106,-2.1317877745242946,0.0,0.0
0.5410821643286573,0.4556760904886602,-1.351196455103809,-0.061810672522095184,0.7123252945525063,-1.842331147240674,0.0,0.0
0.561122244488978,0.4279504921074698,-1.3862799190595183,-0.04687731730027029,0.7466677610912447,-1.5334165703742342,0.0,0.0
0.5811623246492986,0.3996395159620768,-1.4155488072696505,-0.03134277345154151,0.776727192436439,-1.2068420936748538,0.0,0.0
0.6012024048096192,0.37086624100164,-1.4386637480218396,-0.015299705126333385,0.8021534162604063,-0.8644844966658196,0.0,0.0
0.6212424849699398,0.34175982006113786,-1.4553210470251066,0.0011528090226800049,0.8226257074506694,-0.5083139540381991,0.0,0.0
0.6412825651302605,0.31245472656814033,-1.4652546746498758,0.017909919944982946,0.837855546115147,-0.14041146825164758,0.0,0.0
0.6613226452905812,0.2830899550099513,-1.4682385779094511,0.034861716629254094,0.8475898342135574,0.2370126681514585,0.0,0.0
0.6813627254509018,0.25380816859838123,-1.4640893205785044,0.0518940062940207,0.8516144832383307,0.6216012567089283,0.0,0.0
0.7014028056112224,0.2247547882098993,-1.452669019424096,0.06888917116513993,0.8497582435559616,1.0108353854733116,0.0,0.0
0.721442885771543,0.19607701803574715,-1.4338885087076083,0.08572710337410167,0.841896610448087,1.4020244194783902,0.0,0.0
0.7414829659318637,0.16792280543431903,-1.4077106300714055,0.10228621566639928,0.8279556146148808,1.7923027378353684,0.0,0.0
0.7615230460921844,0.14043973519593453,-1.374153511919225,0.11844452141680707,0.8079152875203893,2.1786350378179256,0.0,0.0
0.781563126252505,0.11377386173795054,-1.3332936728991993,0.13408077312777858,0.7818125855485752,2.5578317869089298,0.0,0.0
0.8016032064128256,0.08806848654039323,-1.2852687598778652,0.1490756443694559,0.7497435620838657,2.92657602481582,0.0,0.0
0.8216432865731462,0.06346289225962953,-1.2302797140381851,0.16331293624033782,0.7118645935440966,3.281462172125296,0.0,0.0
0.8416833667334669,0.040091049218635766,-1.1685921520496885,0.17668078612145938,0.6683924940560775,3.619046774567038,0.0,0.0
0.8617234468937875,0.01808031410819324,-1.1005367555221264,0.18907285399539203,0.6196033936966332,3.935910208064303,0.0,0.0
0.8817635270541082,-0.002449855571057747,-1.0265084839625493,0.20038946012809256,0.5658303066350265,4.22872733245149,0.0,0.0
0.9018036072144289,-0.021389144897193867,-0.946964466306806,0.21053864767220634,0.5074593772056895,4.49434399944713,0.0,0.0
0.9218436873747494,-0.03863755458476023,-0.8624204843783183,0.21943714491238236,0.4449248620088019,4.729855326135308,0.0,0.0
0.9418837675350701,-0.05410647531717383,-0.7734460366206799,0.227011204535905,0.37870298117613166,4.932680906748535,0.0,0.0
0.9619238476953907,-0.06771963646687233,-0.6806580574849248,0.2331973014680931,0.309304846609404,5.100631817523956,0.0,0.0
0.9819639278557114,-0.07941390565406334,-0.58471345935955,0.23794267631382282,0.23726874228648642,5.2319645025380215,0.0,0.0
1.002004008016032,-0.08913992065496017,-0.48630075004484125,0.24120571798498155,0.1631520835579363,5.325417458586988,0.0,0.0
1.0220440881763526,-0.09686254163230797,-0.3861310488673902,0.242956186206272,0.08752341106452145,5.380228005885122,0.0,0.0
1.0420841683366733,-0.10256111901447652,-0.28492886910842774,0.24317528170315283,0.010954774844041712,5.396128172946057,0.0,0.0
1.062124248496994,-0.10622957995539858,-0.1834230470461027,0.24185557836712196,-0.0659851668015437,5.373320596825084,0.0,0.0
1.0821643286573146,-0.1078763434868141,-0.08233817657077593,0.23900083698805374,-0.14273706895341115,5.312437075976772,0.0,0.0
1.1022044088176353,-0.10752408060418922,0.017613144131244193,0.23462572378794977,-0.21875566000519875,5.214483781284099,0.0,0.0
1.122244488977956,-0.10520934012565678,0.11573702392662256,0.22875545871439334,-0.29351325367782055,5.0807779750268125,0.0,0.0
1.1422845691382766,-0.100982063941675,0.21136380919908848,0.221425418193243,-0.3665020260575175,4.912881357370902,0.0,0.0
1.1623246492985972,-0.09490501615525554,0.3038523893209733,0.21268071493410026,-0.43723516295713594,4.712534899401746,0.0,0.0
1.1823647294589177,-0.08705314971515514,0.39259332200501995,0.20257577372306973,-0.505247060551526,4.481599347155431,0.0,0.0
1.2024048096192383,-0.07751293173323465,0.477010899096025,0.1911739173231644,-0.5700928199952662,4.222004644184918,0.0,0.0
1.222444889779559,-0.06638164511139816,0.5565643310918246,0.17854697107760203,-0.6313473122781195,3.9357104729779238,0.0,0.0
1.2424849699398797,-0.05376667978001787,0.6307482665690146,0.164774889017082,-0.6886041030260017,3.6246790854359445,0.0,0.0
1.2625250501002003,-0.03978482215705034,0.6990928811483762,0.14994539861400913,-0.7414745201536447,3.2908606679275545,0.0,0.0
1.282565130260521,-0.02456154672363318,0.761163771670858,0.13415365615382835,-0.7895871230090392,2.9361907145770547,0.0,0.0
1.3026052104208417,-0.00823030916925312,0.8165618777190031,0.1175019002931573,-0.8325877930335526,2.562598276041235,0.0,0.0
1.3226452905811623,0.009068163382729477,0.8649236275991299,0.10009908797215772,-0.8701406160499792,2.172023497034879,0.0,0.0
1.342685370741483,0.027186592828356896,0.9059214722813709,0.0820604946139221,-0.9019296679117806,1.7664425286926146,0.0,0.0
1.3627254509018036,0.04597189144954589,0.9392649310594493,0.06350725959219637,-0.9276617510862868,1.3478976701395617,0.0,0.0
1.3827655310621243,0.06526593602613756,0.9647022288295832,0.04456585834310177,-0.9470700624547299,0.9185304300155621,0.0,0.0
1.4028056112224447,0.08490638719559253,0.9820225584727483,0.02536748424301144,-0.9599187050045164,0.4806150824546731,0.0,0.0
1.4228456913827654,0.10472756627796478,0.9910589541186128,0.006047326418895899,-0.966007891205777,0.03659021154845782,0.0,0.0
1.442885771543086,0.12456140054090123,0.991691713146822,-0.01325626611965414,-0.9651796269275019,-0.41091430697762926,0.0,0.0
1.4629258517034067,0.1442384456943196,0.983852257670918,-0.03240273841990916,-0.9573236150127511,-0.8590574388887888,0.0,0.0
1.4829659318637274,0.1635889913152861,0.9675272810483244,-0.05125040002197248,-0.9423830801031658,-1.30477672682545,0.0,0.0
1.503006012024048,0.18244425097473352,0.9427629829723716,-0.06965760389144005,-0.9203601934733782,-1.744789953457397,0.0,0.0
1.5230460921843687,0.20063763416683209,0.9096691596049284,-0.08748401929729852,-0.8913207702929232,-2.175610756794485,0.0,0.0
1.5430861723446894,0.2180060918709601,0.8684228852064,-0.10459197775500528,-0.8553979228853382,-2.593579732217097,0.0,0.0
1.56312625250501,0.2343915219052564,0.8192715017148151,-0.12084786540627615,-0.812794382563543,-2.994911830372357,0.0,0.0
1.5831663326653307,0.24964221443176185,0.7625346263252731,-0.13612353039352937,-0.7637832493626608,-3.3757598674038376,0.0,0.0
1.6032064128256511,0.26361431240075683,0.6986048984497489,-0.15029767025375956,-0.70870699301151,-3.7322927093863867,0.0,0.0
1.6232464929859718,0.27617325681187366,0.62794722055584,-0.16325716243123883,-0.6479746088739635,-4.060785239605958,0.0,0.0
1.6432865731462925,0.28719518291819046,0.5510963053158414,-0.1748983009821129,-0.5820569275437032,-4.357715701987756,0.0,0.0
1.6633266533066131,0.2965682314173012,0.4686524249555365,-0.1851279046388803,-0.5114801828383695,-4.619864648320322,0.0,0.0
1.6833667334669338,0.30419373871178884,0.38127536472438267,-0.19386426572158588,-0.43681805413527974,-4.84440875497212,0.0,0.0
1.7034068136272544,0.30998727278455557,0.28967670363833575,-0.20103791585210817,-0.3586825065261149,-5.029002469311025,0.0,0.0
1.723446893787575,0.31387948618999845,0.19461067027214407,-0.20659219274837726,-0.27771384481345485,-5.171840970208935,0.0,0.0
1.7434869739478958,0.31581676488218813,0.09686393460948345,-0.21048360200233063,-0.19457046269766842,-5.271699317468567,0.0,0.0
1.7635270541082164,0.31576166055179955,-0.0027552165194279776,-0.21268197791845755,-0.10991879580634688,-5.327944785465362,0.0,0.0
1.783567134268537,0.3136931040359171,-0.10342782579412173,-0.21317045731438325,-0.02442396979628432,-5.3405219333995655,0.0,0.0
1.8036072144288577,0.3096064072640618,-0.20433483859276558,-0.2119452887546431,0.0612584279870073,-5.309912570079681,0.0,0.0
1.8236472945891782,0.3035130701700663,-0.3046668546997745,-0.20901550622013734,0.14648912672528847,-5.237075033300885,0.0,0.0
1.8436873747494988,0.2954404162292489,-0.4036326970408699,-0.20440250016271966,0.23065030287088384,-5.123368814810099,0.0,0.0
1.8637274549098195,0.28543108521575655,-0.5004665506746172,-0.19813952001642582,0.3131490073146922,-4.970471360291181,0.0,0.0
1.8837675350701402,0.2735424141585464,-0.5944335528605071,-0.19027114060692019,0.3934189704752819,-4.78029385586991,0.0,0.0
1.9038076152304608,0.259845737347054,-0.6848338405746194,-0.18085272086108925,0.47092098729154636,-4.554902109770326,0.0,0.0
1.9238476953907815,0.24442563388721444,-0.7710051729919783,-0.16994987730051322,0.5451421780288013,-4.296447461892449,0.0,0.0
1.9438877755511021,0.2273791471914046,-0.8523243347904932,-0.15763798763395748,0.6155944833277875,-4.007111239487561,0.0,0.0
1.9639278557114228,0.20881499544060622,-0.928207587539919,-0.14400173198714655,0.6818127823405457,-3.6890648326278597,0.0,0.0
1.9839679358717435,0.18885278602890218,-0.9981104705852023,-0.12913467151752708,0.7433530234809731,-3.344446142037171,0.0,0.0
2.004008016032064,0.16762224078649907,-1.0615272621201552,-0.11313885686943162,0.7997907324047727,-2.9753520430483134,0.0,0.0
2.024048096192385,0.14526243279553105,-1.1179903995484,-0.09612445254774354,0.8507202160844034,-2.583845642705295,0.0,0.0
2.0440881763527052,0.12192103019082161,-1.1670701302354725,-0.07820935815058284,0.8957547198580349,-2.1719764696022534,0.0,0.0
2.064128256513026,0.09775353771780715,-1.2083746236507231,-0.059518803745852666,0.9345277202365088,-1.7418112884302996,0.0,0.0
2.0841683366733466,0.07292252317155543,-1.2415507273125865,-0.04018489467168121,0.9666954537085727,-1.2954729249146801,0.0,0.0
2.1042084168336674,0.04759681327660462,-1.2662854947475402,-0.02034608078647465,0.991940694260328,-0.8351842752095788,0.0,0.0
2.124248496993988,0.02195064215671202,-1.2823085559946301,-0.00014652671847688314,1.0099777033998882,-0.36331451875046955,0.0,0.0
2.1442885771543083,-0.0038372646752970474,-1.2893953416004533,0.02026463708222877,1.0205581900352827,0.11757556947026115,0.0,0.0
2.164328657314629,-0.029584686890190004,-1.2873711107446477,0.040734197838521474,1.0234780378146353,0.6046924143381333,0.0,0.0
2.1843687374749496,-0.05510700037158535,-1.2761156740697672,0.06110588761448535,1.0185844887981939,1.0949758315713023,0.0,0.0
2.2044088176352705,-0.0802183732284899,-1.2555686428452275,0.08122155598567726,1.0057834185595953,1.5850759422933989,0.0,0.0
2.224448897795591,-0.10473307281363198,-1.2257349792571037,0.10092248202926862,0.9850463021795682,2.07134410343272,0.0,0.0
2.244488977955912,-0.1284668841978023,-1.1866905692085166,0.12005081113155755,0.9564164551144464,2.5498409759362612,0.0,0.0
2.2645290581162323,-0.15123863401929422,-1.1385874910745952,0.13845109389993915,0.9200141384190799,3.0163644668052547,0.0,0.0
2.284569138276553,-0.17287180631085428,-1.0816586145780027,0.15597189678468068,0.876040144237077,3.4664995797900318,0.0,0.0
2.3046092184368736,-0.19319622907308615,-1.0162211381115942,0.17246744727569385,0.8247775245506592,3.8956910923305608,0.0,0.0
2.3246492985971945,-0.21204980241218516,-0.9426786669549504,0.18779927115639514,0.7665911940350645,4.299338376090757,0.0,0.0
2.344689378757515,-0.2292802315463742,-0.8615214567094516,0.2018377757010963,0.7019252272350582,4.672909605934147,0.0,0.0
2.3647294589178354,-0.24474672162049083,-0.773324503705832,0.21446373134159605,0.6312977820249879,5.012070199948427,0.0,0.0
2.3847695390781563,-0.2583215868720935,-0.6787432625801323,0.22556960563642936,0.5552937147416652,5.312817899851584,0.0,0.0
2.4048096192384767,-0.26989172509148424,-0.5785069109695375,0.23506070769836515,0.4745551030967893,5.571614877171578,0.0,0.0
2.4248496993987976,-0.2793599101889984,-0.47340925487571006,0.24285610871539579,0.38977005085153144,5.785506136009631,0.0,0.0
2.444889779559118,-0.2866458613750191,-0.36429755930103147,0.24888931465200567,0.30166029683049417,5.952213701591269,0.0,0.0
2.464929859719439,-0.2916870568422409,-0.2520597733610908,0.25310868003651193,0.21096826922531298,6.070197831938707,0.0,0.0
2.4849699398797593,-0.2944392722398161,-0.13761076987875928,0.25547756589850934,0.11844429309987112,6.13867963284048,0.0,0.0
2.50501002004008,-0.29487683847514123,-0.021878311766256306,0.2559742590728721,0.02483465871813577,6.15762352318933,0.0,0.0
2.5250501002004007,-0.29299262798140224,0.09421052468694843,0.25459168277677163,-0.06912881480502288,6.127682290004459,0.0,0.0
2.5450901803607215,-0.28879779199381594,0.20974179937931553,0.2513369382776802,-0.16273722495456933,6.0501112502535035,0.0,0.0
2.565130260521042,-0.2823212822352753,0.323825487927031,0.2462307236544929,-0.25531073115936687,5.926660711159294,0.0,0.0
2.5851703406813624,-0.2736091977880504,0.43560422236124696,0.23930667766910138,-0.34620229926957546,5.759457185619448,0.0,0.0
2.6052104208416833,-0.26272400140798724,0.5442598190031578,0.2306106947013064,-0.434799148389749,5.550883685344338,0.0,0.0
2.6252505010020037,-0.24974364921713518,0.6490176095426035,0.22020025109224373,-0.5205221804531336,5.303468144213232,0.0,0.0
2.6452905811623246,-0.234760674094994,0.7491487561070602,0.20814377492469704,-0.6028238083773343,5.019787027648622,0.0,0.0
2.665330661322645,-0.21788125693972588,0.8439708577634049,0.19452008120512176,-0.6811846859787646,4.702388889151773,0.0,0.0
2.685370741482966,-0.1992243121512788,0.9328472394223527,0.17941788354827307,-0.7551098828424351,4.353740404218454,0.0,0.0
2.7054108216432864,-0.1789206050312345,1.0151853560022153,0.16293538263328317,-0.824125045749495,3.9761954852278687,0.0,0.0
2.7254509018036073,-0.15711191001753105,1.0904347506851721,0.1451799215741343,-0.887773052957443,3.571986576083941,0.0,0.0
2.7454909819639277,-0.1339502103395493,1.1580849838990883,0.12626768944184572,-0.9456116066144294,3.143236153065299,0.0,0.0
2.7655310621242486,-0.10959693219724508,1.2176639071152109,0.1063234468699438,-0.9972121285950956,2.691985760595163,0.0,0.0
2.785571142284569,-0.08422220020854534,1.2687365994349868,0.08548024224751284,-1.0421602311215477,2.2202394953201914,0.0,0.0
2.8056112224448895,-0.05800409580007808,1.310905220423363,0.06387908366041262,-1.080057929355011,1.7300186197076914,0.0,0.0
2.8256513026052104,-0.031127896534585267,1.3438099632746405,0.04166853062627775,-1.1105276517067435,1.223423852422631,0.0,0.0
2.845691382765531,-0.0037852721263812866,1.367131220410199,0.019004170863667992,-1.1332179881304878,0.702701782350881,0.0,0.0
2.8657314629258517,0.023826587880147323,1.3805930003264304,-0.003952049159862626,-1.1478110011765308,0.17031174570078478,0.0,0.0
2.885771543086172,0.05150593909483475,1.3839675607343715,-0.027032665445943807,-1.154030814304059,-0.37101062950778607,0.0,0.0
2.905811623246493,0.07904756208055956,1.3770811492862403,-0.05006572730482259,-1.1516530929439392,-0.9181971738910404,0.0,0.0
2.9258517034068134,0.10624397547774744,1.3598206698593944,-0.07287602635116523,-1.1405149523171323,-1.4678023697072673,0.0,0.0
2.9458917835671343,0.132886795874249,1.3321410198250787,-0.095286521700195,-1.1205247674514887,-2.015974306613008,0.0,0.0
2.9659318637274548,0.15876825132313602,1.2940727724443506,-0.11711994827559025,-1.0916713287697621,-2.558445817622725,0.0,0.0
2.9859719438877756,0.18368284751404815,1.2457298095456066,-0.13820058392162304,-1.0540317823016396,-3.090550131055972,0.0,0.0
3.006012024048096,0.2074291764195585,1.1873164452755178,-0.15835614024504835,-1.0077778161712656,-3.6072649558986143,0.0,0.0
3.0260521042084165,0.2298118469534487,1.11913352669451,-0.17741973230153324,-0.9531796028242452,-4.103287961140649,0.0,0.0
3.0460921843687374,0.2506435061421844,1.041582959436784,-0.19523187387320623,-0.8906070785836493,-4.573144899013607,0.0,0.0
3.066132264529058,0.26974690811506014,0.9551700986437884,-0.21164243867541524,-0.82052824011045,-5.011329009908454,0.0,0.0
3.0861723446893787,0.2869569777541362,0.8605034819538029,-0.2265125239836,-0.7435042654092382,-5.41246685749454,0.0,0.0
3.106212424849699,0.3021228073050408,0.7582914775452302,-0.23971615258778264,-0.6601814302091319,-5.771501685618281,0.0,0.0
3.12625250501002,0.315109519024946,0.6493355859952601,-0.2511417523965864,-0.5712799904401905,-6.083881408811869,0.0,0.0
3.1462925851703405,0.3257999263968048,0.5345203685929395,-0.2606933610126442,-0.4775804308028879,-6.345735354235139,0.0,0.0
3.1663326653306614,0.3340959315772528,0.4148002590224016,-0.26829151536913515,-0.3799077178245479,-6.554022816142172,0.0,0.0
