time,x,x_dot,theta,theta_dot,u,x_ref,theta_ref
0.0,0.15265740588777277,-0.03134582603733231,-0.0523731040818487,-0.025100646882423527,-0.986197342461174,0.0,0.0
0.02004008016032064,0.1516607075448275,-0.049834917147264145,-0.052629171633821636,-0.012803377598646757,-1.023042769266006,0.0,0.0
0.04008016032064128,0.15027992642256585,-0.06903905611308228,-0.05261939555848054,0.0004888037670548306,-1.049971149069727,0.0,0.0
0.06012024048096192,0.14850455384332473,-0.08876862896205683,-0.0523279868247646,0.014570436685797028,-1.0686383236917845,0.0,0.0
0.08016032064128256,0.1463272226965178,-0.10886655734034642,-0.05174219768882145,0.029289456797157512,-1.0788231433164046,0.0,0.0
0.1002004008016032,0.14374378997236287,-0.12917163620774663,-0.050852369841321375,0.04449139237500365,-1.0803736532017172,0.0,0.0
0.12024048096192384,0.14075339326436334,-0.14951983539997604,-0.049651962334779996,0.0600203753270691,-1.0732079077179704,0.0,0.0
0.1402805611222445,0.1373584809379382,-0.1697456163212575,-0.048137559032485164,0.07572016511474144,-1.0573140826908274,0.0,0.0
0.16032064128256512,0.13356481592429054,-0.1896832506823836,-0.046308855547961006,0.09143517422620775,-1.0327498830470692,0.0,0.0
0.18036072144288576,0.12938145336112158,-0.20916812815844815,-0.044168625871214715,0.10701148383731461,-0.9996419288271448,0.0,0.0
0.2004008016032064,0.12482069229799461,-0.22803805315634829,-0.041722668709863305,0.12229785806757044,-0.9581834508691748,0.0,0.0
0.22044088176352705,0.11989800233202869,-0.2461344982982966,-0.03897973438645428,0.13714671617045135,-0.9086328046984221,0.0,0.0
0.24048096192384769,0.11463192571003669,-0.2633038310995998,-0.03595143249608358,0.15141509451853494,-0.8513108922065507,0.0,0.0
0.2605210420841683,0.10904395585050576,-0.2793984929765464,-0.03265212102131579,0.16496557373838983,-0.7865983895934889,0.0,0.0
0.280561122244489,0.1031583933074626,-0.29427812715215823,-0.029098777588652463,0.17766717163316628,-0.7149326898608488,0.0,0.0
0.3006012024048096,0.09700218030476694,-0.30781065013478254,-0.0253108536118777,0.18939619883873815,-0.6368045911043796,0.0,0.0
0.32064128256513025,0.09060471506582302,-0.3198732619471963,-0.021310112131153545,0.20003707403620774,-0.5527547790214216,0.0,0.0
0.3406813627254509,0.08399764724332523,-0.3303533911248895,-0.017120450212080137,0.2094830959536704,-0.46337012651447124,0.0,0.0
0.3607214428857715,0.07721465582622823,-0.3391495708548497,-0.012767706829287923,0.2176371691396107,-0.36927981715769836,0.0,0.0
0.3807615230460922,0.07029121097262889,-0.3461722426799675,-0.008279457231316286,0.2244124798985818,-0.2711512992966416,0.0,0.0
0.4008016032064128,0.06326432128726328,-0.35134448426828063,-0.0036847948642784985,0.2297331183518894,-0.1696860619881262,0.0,0.0
0.42084168336673344,0.05617226813645404,-0.3546026575404621,0.0009858979735315942,0.23353464189050463,-0.06561521920851064,0.0,0.0
0.4408817635270541,0.04905432867294329,-0.35589697317553737,0.005701189466508689,0.23576457464885472,0.04030511569089054,0.0,0.0
0.4609218436873747,0.04195048932933435,-0.35519196718044693,0.010428846207540773,0.2363828370516042,0.14729868622121606,0.0,0.0
0.48096192384769537,0.034901151632493375,-0.35246688484204897,0.015136088187481075,0.23536209899701505,0.2545741967338323,0.0,0.0
0.501002004008016,0.02794683229029225,-0.3477159671100563,0.019789849187613905,0.23268805000664153,0.3613308085723054,0.0,0.0
0.5210420841683366,0.02112785965589308,-0.3409486317199586,0.024357040703794113,0.22835957580901042,0.46676326789021777,0.0,0.0
0.5410821643286573,0.014484068530085391,-0.3321895562903844,0.028804817772685044,0.2223888534445465,0.5700684820074953,0.0,0.0
0.561122244488978,0.008054495824576971,-0.321478635275421,0.03310084425921769,0.2148013243266324,0.6704511898429175,0.0,0.0
0.5811623246492986,0.0018770792511743281,-0.30887082867013216,0.03721355573378489,0.20563557372835997,0.7671303594956929,0.0,0.0
0.6012024048096192,-0.0040116385204368495,-0.29443588858055886,0.04111241768690905,0.19494309765620782,0.8593456160507082,0.0,0.0
0.6212424849699398,-0.009576797788809068,-0.27825796341861087,0.044768176855143095,0.1827879584117022,0.9463637295106814,0.0,0.0
0.6412825651302605,-0.01478549936730204,-0.26043507892464857,0.04815310343533595,0.1692463290096429,1.0274850765575667,0.0,0.0
0.6613226452905812,-0.019607069305291693,-0.24107849689948255,0.051241222007834604,0.1544059286249326,1.10204997828483,0.0,0.0
0.6813627254509018,-0.024013308393273095,-0.22031195439907014,0.05400852907403787,0.13836535331016325,1.1694448083017777,0.0,0.0
0.7014028056112224,-0.02797872415597163,-0.1982707881349268,0.05643319523928353,0.12123330826228298,1.2291077623606868,0.0,0.0
0.721442885771543,-0.03148074317289469,-0.1751009508461529,0.058495750235668595,0.10312774981925345,1.2805341824159717,0.0,0.0
0.7414829659318637,-0.03449990174033821,-0.1509579283721759,0.06017924917648979,0.0841749470410599,1.323281334966416,0.0,0.0
0.7615230460921844,-0.03702001309963099,-0.1260055679646391,0.0614694186582784,0.06450847408943064,1.356972555465254,0.0,0.0
0.781563126252505,-0.03902830969849979,-0.10041482994344021,0.06235478157028478,0.04426814560031919,1.381300686993787,0.0,0.0
0.8016032064128256,-0.040515559219456355,-0.07436247604782817,0.06282675972622771,0.023598907797146216,1.3960307613325855,0.0,0.0
0.8216432865731462,-0.04147615339344797,-0.048029708699580904,0.06287975369029518,0.0026496982033729945,1.4010018929551096,0.0,0.0
0.8416833667334669,-0.04190816891030761,-0.021600775842981822,0.06251119942005041,-0.018427713512238028,1.3961283798073387,0.0,0.0
0.8617234468937875,-0.041813400031211076,0.004738443954826688,0.061721601585132006,-0.039479891745920495,1.381400027756969,0.0,0.0
0.8817635270541082,-0.04119736279407257,0.030801861856925225,0.06051454363570155,-0.06035289747152277,1.3568817366795898,0.0,0.0
0.9018036072144289,-0.04006927097310065,0.056404591048596006,0.058896674883473575,-0.08089343761139889,1.32271230945573,0.0,0.0
0.9218436873747494,-0.03844198423929173,0.08136433669044596,0.05687767507308022,-0.1009499905196677,1.2791031663131058,0.0,0.0
0.9418837675350701,-0.03633192898889469,0.10550276251985198,0.054470196748963605,-0.12037391620583057,1.2263353893328581,0.0,0.0
0.9619238476953907,-0.033758992943206764,0.12864680228439626,0.05168978648546493,-0.13902051317493402,1.164757566207737,0.0,0.0
0.9819639278557114,-0.030746394298489965,0.15062993223583995,0.04855478539387817,-0.156750054579338,1.0947825743361947,0.0,0.0
1.002004008016032,-0.02732052660803258,0.17129338452286919,0.045086209775957495,-0.17342878089603375,1.016884224341249,0.0,0.0
1.0220440881763526,-0.02351078062608843,0.1904872990972075,0.041307612742079794,-0.18892985169388518,0.9315936715511279,0.0,0.0
1.0420841683366733,-0.019349344429945427,0.2080718098071501,0.037244927644223456,-0.20313425489281695,0.8394956435324247,0.0,0.0
1.062124248496994,-0.01487098320720994,0.2239180611367744,0.032926294207002195,-0.21593167186106296,0.7412245324582242,0.0,0.0
1.0821643286573146,-0.010112800150044787,0.23790915285825762,0.02838186827163156,-0.22722129676853187,0.6374603587571555,0.0,0.0
1.1022044088176353,-0.00511397995269166,0.24994100986765633,0.02364361611914288,-0.23691260762443392,0.5289246127361292,0.0,0.0
1.122244488977956,8.448353748178802e-05,0.2599231745086724,0.0187450944057524,-0.24492608566952392,0.41637596183854153,0.0,0.0
1.1422845691382766,0.005440073905154436,0.2677795183836324,0.013721216830903877,-0.2511938787424262,0.3006058013032841,0.0,0.0
1.1623246492985972,0.010909051308909817,0.27344887018776903,0.00860800876725869,-0.25566040318225935,0.1824336149360345,0.0,0.0
1.1823647294589177,0.016446762418122634,0.2768855554606408,0.0034423512125745515,-0.2582828777342069,0.06270210926358753,0.0,0.0
1.2024048096192383,0.022007959287616518,0.2780598434746942,-0.0017382844273475936,-0.25903178199610727,-0.05772802579691047,0.0,0.0
1.222444889779559,0.027547125161425424,0.27695829369044533,-0.00689610898787946,-0.2578912280265933,-0.1779831315511637,0.0,0.0
1.2424849699398797,0.03301880528103257,0.27358400598035715,-0.0119932940232879,-0.25485925177042196,-0.29718288395207537,0.0,0.0
1.2625250501002003,0.038377940269371025,0.2679567494169227,-0.016992253772011422,-0.24994798743617613,-0.4144460083073587,0.0,0.0
1.282565130260521,0.04358019989296963,0.26011298117993037,-0.021855928641699638,-0.24318374348441077,-0.5288967386997919,0.0,0.0
1.3026052104208417,0.0485823147180661,0.25010574125482354,-0.02654806785397021,-0.23460696061352854,-0.6396714826105645,0.0,0.0
1.3226452905811623,0.053342403102868904,0.23800441924014035,-0.031033508822621375,-0.22427204843255824,-0.7459257210281725,0.0,0.0
1.342685370741483,0.05782029088467506,0.22389438909030762,-0.03527845076167964,-0.21224709695291333,-0.8468410720614549,0.0,0.0
1.3627254509018036,0.06197782106654131,0.20787650909331268,-0.039250719985453535,-0.1986134611886948,-0.9416324257403973,0.0,0.0
1.3827655310621243,0.06577915079084198,0.1900664862150338,-0.04292002437704297,-0.18346521957947148,-1.029555040200678,0.0,0.0
1.4028056112224447,0.06919103291229821,0.17059410607281106,-0.046258194567600275,-0.1669085095278655,-1.1099114760445816,0.0,0.0
1.4228456913827654,0.07218307955526963,0.149602332148571,-0.04923940948666363,-0.14906074595316782,-1.1820582375961026,0.0,0.0
1.442885771543086,0.07472800516154701,0.12724628031386864,-0.05184040411204554,-0.1300497312690955,-1.245411987833059,0.0,0.0
1.4629258517034067,0.07680184670555543,0.10369207720042076,-0.054040657461436936,-0.11001266746957,-1.29945520852918,0.0,0.0
1.4829659318637274,0.07838415897130153,0.07911561328730565,-0.05582255912004766,-0.08909508293053624,-1.3437411885736157,0.0,0.0
1.503006012024048,0.07945818304469643,0.05370120366974461,-0.05717155288020027,-0.06744968800763024,-1.3778982411026799,0.0,0.0
1.5230460921843687,0.08001098646898785,0.027640171214571,-0.058076256369290036,-0.04523517445448833,-1.4016330730629525,0.0,0.0
1.5430861723446894,0.08003357383105135,0.0011293681031746168,-0.05852855585053196,-0.02261497406209616,-1.414733257735518,0.0,0.0
1.56312625250501,0.07952096688205,-0.025630347450067186,-0.058523675684939686,0.00024400827961390884,-1.4170687899024126,0.0,0.0
1.5831663326653307,0.07847225363666552,-0.052435662269224206,-0.05806022223216618,0.023172672638675503,-1.4085927329325678,0.0,0.0
1.6032064128256511,0.07689060622993675,-0.07908237033643867,-0.05714020223263237,0.046000999976690285,-1.3893409950266002,0.0,0.0
1.6232464929859718,0.07478326762970279,-0.10536693001169797,-0.05576901594625343,0.06855931431894716,-1.3594312966512045,0.0,0.0
1.6432865731462925,0.07216150759704033,-0.1310880016331226,-0.053955425518873716,0.09067952136898574,-1.319061309873475,0.0,0.0
1.6633266533066131,0.06904054858962852,-0.15604795037059088,-0.05171149926295508,0.11219631279593156,-1.2685067224701623,0.0,0.0
1.6833667334669338,0.06543946231337698,-0.1800543138125769,-0.049052532332135794,0.13294834654096457,-1.2081175464485816,0.0,0.0
1.7034068136272544,0.06138103829596359,-0.2029212008706694,-0.045996945066320113,0.15277936329078415,-1.138315363293258,0.0,0.0
1.723446893787575,0.056891625477084894,-0.22447064094393504,-0.042566159541834854,0.171539276224263,-1.0595894832625241,0.0,0.0
1.7434869739478958,0.05200094822397827,-0.2445338626553312,-0.03878445533225199,0.18908521047914303,-0.9724930438161714,0.0,0.0
1.7635270541082164,0.04674189819848825,-0.262952501274501,-0.03467880539478731,0.2052824968732342,-0.8776389138668872,0.0,0.0
1.783567134268537,0.04115030357555729,-0.2795797311465482,-0.030278693020477594,0.22000561871548563,-0.7756954964524019,0.0,0.0
1.8036072144288577,0.03526467715420218,-0.2942813210677554,-0.025615910789759583,0.23313911153590047,-0.6673824344827962,0.0,0.0
1.8236472945891782,0.02912594494469213,-0.30693661047550247,-0.020724342506164613,0.24457841417974846,-0.5534662283507298,0.0,0.0
1.8436873747494988,0.022777156857564596,-0.31743940435637685,-0.01563972913197005,0.2542306687097282,-0.43475575770008273,0.0,0.0
1.8637274549098195,0.016263181166983182,-0.3256987845290707,-0.010399419824097414,0.26201546539363185,-0.3120976716634936,0.0,0.0
1.8837675350701402,0.00963038448281368,-0.33163983420847515,-0.005042109275604196,0.26786552742466085,-0.1863716098195824,0.0,0.0
1.9038076152304608,0.002926299042551029,-0.3352042720131326,0.0003924372983228185,0.27172732869635075,-0.05848519780301631,0.0,0.0
1.9238476953907815,-0.003800720767906692,-0.33635099052288603,0.005863670027301398,0.27356163644892895,0.07063135296518513,0.0,0.0
1.9438877755511021,-0.010501850592873703,-0.3350564912483506,0.011330549348730654,0.2733439660714628,0.2000304322979979,0.0,0.0
1.9639278557114228,-0.01712815499042602,-0.33131521987761586,0.01675184842589652,0.2710649538582932,0.3287535991074081,0.0,0.0
1.9839679358717435,-0.02363095048473286,-0.32513977471534206,0.02208646058347293,0.26673060787882047,0.45583760929805917,0.0,0.0
2.004008016032064,-0.029962170462130313,-0.3165609988698727,0.027293709667402546,0.2603624541964808,0.5803212884376265,0.0,0.0
2.024048096192385,-0.036074729260171655,-0.305627939902067,0.03233366079199096,0.25199755622942066,0.7012527114426368,0.0,0.0
2.0440881763527052,-0.04192288268631041,-0.29240767130693796,0.037167428824673436,0.2416884016341238,0.8176967272597888,0.0,0.0
2.064128256513026,-0.047462582078355776,-0.27698496960226826,0.04175748183732056,0.22950265063235617,0.9287427568832192,0.0,0.0
2.0841683366733466,-0.052651818924483174,-0.2594618423063699,0.04606793667984212,0.215522742126078,1.0335127657362584,0.0,0.0
2.1042084168336674,-0.05745095700614091,-0.2399569040828869,0.050064843815203146,0.19984535676805154,1.1311692868808394,0.0,0.0
2.124248496993988,-0.06182304902119028,-0.21860460075246838,0.053716458600095704,0.18258073924462784,1.2209233513788327,0.0,0.0
2.1442885771543083,-0.0657341346937629,-0.19555428362863075,0.056993496304714245,0.163851885230927,1.302042168150316,0.0,0.0
2.164328657314629,-0.06915351748592125,-0.17096913960791785,0.05986936833734088,0.14379360163133176,1.3738563891894082,0.0,0.0
2.1843687374749496,-0.0720540171957339,-0.14502498549063297,0.062320397370366654,0.12255145165128886,1.435766797966045,0.0,0.0
2.2044088176352705,-0.0744121959551645,-0.11790893797153046,0.06432600934632078,0.10028059879770632,1.487250269579469,0.0,0.0
2.224448897795591,-0.07620855542438314,-0.0898179734609314,0.06586890066497195,0.07714456593255824,1.5278648704447908,0.0,0.0
2.244488977955912,-0.07742770330888712,-0.06095739422519954,0.06693517920287714,0.05331392689525967,1.5572539920337023,0.0,0.0
2.2645290581162323,-0.07805848769170737,-0.03153921914101228,0.06751447818068725,0.028964948890505063,1.5751494458591444,0.0,0.0
2.284569138276553,-0.07809409806253641,-0.0017805185414521661,0.06760004225633588,0.0042782037824321585,1.5813734834386857,0.0,0.0
2.3046092184368736,-0.07753213232521117,0.028098286866262236,0.06718878556961963,-0.02056283433581277,1.5758397429333117,0.0,0.0
2.3246492985971945,-0.07637462946069744,0.057875143225686626,0.06628132178271522,-0.045373189345220666,1.5585531610787902,0.0,0.0
2.344689378757515,-0.07462806790125187,0.08732807797227844,0.06488196644119844,-0.06996776707583918,1.5296089222913498,0.0,0.0
2.3647294589178354,-0.07230333002103277,0.11623689401095523,0.06299871221348619,-0.09416271138561284,1.4891905445186837,0.0,0.0
2.3847695390781563,-0.0694156334595693,0.1443848280731731,0.06064317774905453,-0.11777672322158267,1.43756712637506,0.0,0.0
2.4048096192384767,-0.06598443029769174,0.17156015809387828,0.057830531082354746,-0.1406323333349894,1.3750905101590742,0.0,0.0
2.4248496993987976,-0.06203327511710397,0.19755775902938866,0.05457938828419418,-0.16255713990802828,1.3021907885409032,0.0,0.0
2.444889779559118,-0.05758966360332963,0.222180575688717,0.050911688789791576,-0.18338497472013016,1.2193727836990094,0.0,0.0
2.464929859719439,-0.052684842959319085,0.24524103220052715,0.046852548070726745,-0.20295703595324144,1.1272115562734117,0.0,0.0
2.4849699398797593,-0.04735359576715042,0.26656235960843344,0.04243008873322021,-0.22112296687532648,1.0263479215150388,0.0,0.0
2.50501002004008,-0.0416339989291382,0.28597984190061093,0.03767525101661459,-0.23774188583028097,0.9174839107888719,0.0,0.0
2.5250501002004007,-0.03556715934251569,0.3033419793311256,0.032621583637632304,-0.25268336894911436,0.8013782056027474,0.0,0.0
2.5450901803607215,-0.029196927978525456,0.31851156819951176,0.027305015921697887,-0.2658283857967209,0.6788415522276179,0.0,0.0
2.565130260521042,-0.02256959405401298,0.3313666962256238,0.021763612187231447,-0.277070186723322,0.550732147799487,0.0,0.0
2.5851703406813624,-0.015733561007270736,0.3418016523371121,0.016037309404536623,-0.28631513913474127,0.4179509591075049,0.0,0.0
2.6052104208416833,-0.008739006030445601,0.34972774884125674,0.010167639246117167,-0.2934835079209727,0.2814369110164885,0.0,0.0
2.6252505010020037,-0.0016375249765958897,0.3550740526924856,0.004197435784644127,-0.298510173073652,0.14216187915804254,0.0,0.0
2.6452905811623246,0.005518235449836669,0.3577880213216279,-0.0018294697297412243,-0.30134527571926756,0.0011252748813462,0.0,0.0
2.665330661322645,0.012674956138737467,0.35783603444503986,-0.00786856529264832,-0.3019547781453548,-0.14065114998821732,0.0,0.0
2.685370741482966,0.019779032651869012,0.3552038256565772,-0.013874984145892631,-0.3003209426622156,-0.2821299947311402,0.0,0.0
2.7054108216432864,0.026776968338070358,0.3498967843100673,-0.019803837851084832,-0.29644268525961,-0.42226439821091305,0.0,0.0
2.7254509018036073,0.03361577108653178,0.34194013742307106,-0.02561055424709879,-0.2903358198006979,-0.560005203754815,0.0,0.0
2.7454909819639277,0.040243350940548324,0.33137899270082743,-0.031251217582326275,-0.28203316676137413,-0.6943085588716036,0.0,0.0
2.7655310621242486,0.04660891563206392,0.3182782345757801,-0.03668290793700927,-0.2715845177341497,-0.8241440055071828,0.0,0.0
2.785571142284569,0.05266336091770781,0.3027222642821944,-0.041864036865939515,-0.25905644644651216,-0.9485029954290523,0.0,0.0
2.8056112224448895,0.05835965244641164,0.2848145764351916,-0.04675467606102603,-0.2445319597543259,-1.0664077291326,0.0,0.0
2.8256513026052104,0.06365319578014203,0.26467716668651975,-0.05131687576823132,-0.22810998536026408,-1.1769201825700477,0.0,0.0
2.845691382765531,0.06850219113478019,0.24244976773190796,-0.05551496970273327,-0.20990469672509782,-1.2791511564192357,0.0,0.0
2.8657314629258517,0.07286796941779608,0.21828891415079432,-0.059315863294797225,-0.1900446796031978,-1.3722691599320564,0.0,0.0
2.885771543086172,0.0767153062204163,0.19236684013101074,-0.0626893022674961,-0.16867194863494356,-1.4555089276325655,0.0,0.0
2.905811623246493,0.080012710578373,0.16487021789783549,-0.06560811879249656,-0.14594082625002291,-1.5281793638895242,0.0,0.0
2.9258517034068134,0.0827326855470157,0.13599874843213483,-0.06804845278369222,-0.12201669955978313,-1.5896707185393428,0.0,0.0
2.9458917835671343,0.08485195793937186,0.10596361961780801,-0.06998994625858244,-0.09707467374451122,-1.6394608162942281,0.0,0.0
2.9659318637274548,0.08635167494137488,0.07498585010015077,-0.07141590910872557,-0.07129814250715624,-1.6771201928370039,0.0,0.0
2.9859719438877756,0.08721756573493898,0.04329453967820505,-0.07231345505568,-0.04487729734772152,-1.7023160295064952,0.0,0.0
3.006012024048096,0.08744006671184888,0.011125048845494798,-0.07267360700867324,-0.018007597649662043,-1.714814823825356,0.0,0.0
3.0260521042084165,0.08701440933249892,-0.021282868967497877,-0.07249137146590692,0.009111777138315711,-1.7144837817835685,0.0,0.0
3.0460921843687374,0.08594067015540578,-0.053686958854656644,-0.07176578199530562,0.03627947353006511,-1.701290966292196,0.0,0.0
3.066132264529058,0.08422378301854253,-0.08584435684316266,-0.0704999121776137,0.06329349088459552,-1.675304281356778,0.0,0.0
3.0861723446893787,0.08187351377583617,-0.11751346213531794,-0.06870085868352284,0.08995267470454318,-1.6366894100329321,0.0,0.0
