time,x,x_dot,theta,theta_dot,u,x_ref,theta_ref
0.0,0.6970936228873357,-0.013537751133827228,0.007792792615398447,0.09569120372260362,4.8717354207991,0.0,0.0
0.02004008016032064,0.6987217053699452,0.08140412413047643,0.006906018446100287,-0.044338708464908005,4.4602395780887125,0.0,0.0
0.04008016032064128,0.7020883043494613,0.1683299489758072,0.0034537422220799413,-0.17261381120101726,4.046139693451892,0.0,0.0
0.06012024048096192,0.707032823180714,0.24722594156263347,-0.002343626016689755,-0.28986841193848484,3.598461277319732,0.0,0.0
0.08016032064128256,0.713382222767735,0.3174699793510468,-0.010260765253285871,-0.3958569618298058,3.121800845853787,0.0,0.0
0.1002004008016032,0.720952730560362,0.37852538963135307,-0.020068620920651845,-0.49039278336829867,2.6196230251439006,0.0,0.0
0.12024048096192384,0.7295511099848742,0.4299189712256086,-0.03153493260033115,-0.5733155839839652,2.09522788575308,0.0,0.0
0.1402805611222445,0.7389758727587553,0.47123813869405673,-0.04442470801383271,-0.6444887706750784,1.5518829146811122,0.0,0.0
0.16032064128256512,0.749018488701044,0.5021307971144364,-0.0585007387659953,-0.7038015376081292,0.9929142576499106,0.0,0.0
0.18036072144288576,0.7594646299813754,0.5223070640165678,-0.07352421808811141,-0.7511739661058054,0.42179741792961845,0.0,0.0
0.2004008016032064,0.7700954848852122,0.5315427451918386,-0.08925550990361199,-0.7865645907750287,-0.15775661871050206,0.0,0.0
0.22044088176352705,0.780689172906685,0.5296844010736449,-0.10545510646525535,-0.809979828082168,-0.7417264596548195,0.0,0.0
0.24048096192384769,0.791022287366587,0.5166557229950972,-0.12188479757470584,-0.8214845554725245,-1.3257232109520412,0.0,0.0
0.2605210420841683,0.8008715838692935,0.4924648251353233,-0.13830905856938824,-0.8212130497341206,-1.9049576563595279,0.0,0.0
0.280561122244489,0.8100158229143388,0.4572119522522676,-0.15449664756481174,-0.8093794497711746,-2.4742378009057373,0.0,0.0
0.3006012024048096,0.8182377630765694,0.41109700811152766,-0.1702223856282801,-0.7862869031734174,-3.028002140201813,0.0,0.0
0.32064128256513025,0.8253262876926126,0.3544262308021614,-0.1852690774223617,-0.7523345897040802,-3.560392622459882,0.0,0.0
0.3406813627254509,0.8310786334837218,0.28761728955545934,-0.1994295152483135,-0.7080218912975897,-4.065368916746208,0.0,0.0
0.3607214428857715,0.8353026748638266,0.2112020690052371,-0.21250849730720273,-0.6539491029444608,-4.536862101331753,0.0,0.0
0.3807615230460922,0.8378192040674547,0.12582646018140486,-0.22432478248945792,-0.5908142591127599,-4.968961313535791,0.0,0.0
0.4008016032064128,0.838464136285294,0.03224661089196558,-0.23471290031639505,-0.5194058913468572,-5.356121730072864,0.0,0.0
0.42084168336673344,0.8370905625090211,-0.06867868881364456,-0.24352473694839707,-0.4405918316001011,-5.693377387007905,0.0,0.0
0.4408817635270541,0.8335705724225356,-0.17599950432427533,-0.2506308272519152,-0.35530451517590705,-5.9765390061059325,0.0,0.0
0.4609218436873747,0.8277967765300921,-0.28868979462217814,-0.2559212988738467,-0.2645235810965722,-6.202356329168896,0.0,0.0
0.48096192384769537,0.8196834709006152,-0.4056652814738419,-0.2593064361814269,-0.16925686537900997,-6.368627151703999,0.0,0.0
0.501002004008016,0.8091674083354777,-0.5258031282568748,-0.2607168577601165,-0.07052107893447958,-6.474241142485186,0.0,0.0
0.5210420841683366,0.7962081641932441,-0.6479622071116784,-0.26010332802320174,0.030676486845737247,-6.519154601542275,0.0,0.0
0.5410821643286573,0.7807881105351044,-0.7710026829069845,-0.25743624813023686,0.13335399464824488,-6.504300916429307,0.0,0.0
0.561122244488978,0.7629120355443292,-0.8938037495387621,-0.2527048908979221,0.23656786161573756,-6.431448907063907,0.0,0.0
0.5811623246492986,0.7426064636532217,-1.0152785945553717,-0.24591645665444722,0.33942171217374345,-6.303026199684132,0.0,0.0
0.6012024048096192,0.7199187437538073,-1.1343859949707191,-0.2370950311736509,0.4410712740398157,-6.121926678308428,0.0,0.0
0.6212424849699398,0.6949159776750399,-1.2501383039383693,-0.22628052326445394,0.5407253954598481,-5.89132012449333,0.0,0.0
0.6412825651302605,0.6676838592197424,-1.3616059227648754,-0.21352764955390546,0.6376436855274237,-5.614479117634501,0.0,0.0
0.6613226452905812,0.6383254866619985,-1.4679186278871938,-0.19890501929047613,0.7311315131714661,-5.294634102242345,0.0,0.0
0.6813627254509018,0.6069602002940314,-1.5682643183983545,-0.1824943545396714,0.8205332375402375,-4.934863157320442,0.0,0.0
0.7014028056112224,0.5737224830187458,-1.661885863764278,-0.16438986270166467,0.9052245919003366,-4.5380191038966196,0.0,0.0
0.721442885771543,0.5387609475607315,-1.7480767729007198,-0.14469776026246853,0.9846051219598069,-4.106693532045614,0.0,0.0
0.7414829659318637,0.502237419750514,-1.8261763905108765,-0.12353593012939192,1.0580915066538303,-3.643215213986395,0.0,0.0
0.7615230460921844,0.46432611431863957,-1.8955652715937188,-0.10103368050918035,1.1251124810105786,-3.1496790933764403,0.0,0.0
0.781563126252505,0.42521288821346903,-1.9556613052585268,-0.0773315615527952,1.1851059478192572,-2.6280013998577485,0.0,0.0
0.8016032064128256,0.3850945469015552,-2.0059170655956904,-0.052581187280520705,1.237518713613725,-2.0799962014236866,0.0,0.0
0.8216432865731462,0.34417817155139063,-2.0458187675082296,-0.026945004924790072,1.2818091177865316,-1.507468674707991,0.0,0.0
0.8416833667334669,0.3026804294907161,-2.0748871030337273,-0.0005959520548449344,1.3174526434972569,-0.9123203964934936,0.0,0.0
0.8617234468937875,0.2608268268780292,-2.0926801306343448,0.026283056128382592,1.3439504091613763,-0.2966619464262983,0.0,0.0
0.8817635270541082,0.2188508611365339,-2.0987982870747652,0.05349986106671705,1.360840246916723,0.3370719850990027,0.0,0.0
0.9018036072144289,0.17699303134681874,-2.092891489485758,0.08085405888395186,1.3677098908617402,0.9860099942916941,0.0,0.0
0.9218436873747494,0.13549966745632672,-2.0746681945246013,0.10813829162934688,1.3642116372697506,1.6467392129383804,0.0,0.0
0.9418837675350701,0.09462154381356899,-2.043906182137886,0.13513984594784423,1.3500777159248678,2.3152142615669624,0.0,0.0
0.9619238476953907,0.054612249176502,-2.0004647318533495,0.16164255669161584,1.3251355371885807,2.9866864847153485,0.0,0.0
0.9819639278557114,0.015726294052475595,-1.9442977562013202,0.18742899583237788,1.2893219570381018,3.6556610150233206,0.0,0.0
1.002004008016032,-0.021783052811719106,-1.8754673432097348,0.21228291035452215,1.2426957261072133,4.315890355372887,0.0,0.0
1.0220440881763526,-0.05766619345275469,-1.7941570320517795,0.235991857229234,1.185447343735592,4.960414211415254,0.0,0.0
1.0420841683366733,-0.09167987346892507,-1.7006840008085191,0.25834996933539695,1.1179056053081464,5.581655670155317,0.0,0.0
1.062124248496994,-0.12359005729132758,-1.5955091911201247,0.2791607732757877,1.0405401970195387,6.171582556030011,0.0,0.0
1.0821643286573146,-0.1531749424379269,-1.4792442573299667,0.2982399684692143,0.9539597596713295,6.721939233593133,0.0,0.0
1.1022044088176353,-0.18022802537388688,-1.3526541467979998,0.31541806700136665,0.8589049266076173,7.224544943301641,0.0,0.0
1.122244488977956,-0.2045611093297008,-1.2166541977906964,0.3305427878914812,0.756236044505729,7.671647090013529,0.0,0.0
1.1422845691382766,-0.2260071263133179,-1.072300849180855,0.3434810982879804,0.6469155198249583,8.056300044573664,0.0,0.0
1.1623246492985972,-0.244422638096754,-0.9207755891718041,0.3541208033630282,0.5319852537523913,8.372731941431368,0.0,0.0
1.1823647294589177,-0.2596898869222405,-0.7633624412743248,0.3623716067150643,0.4125401676018061,8.616653576247671,0.0,0.0
1.2024048096192383,-0.27171828907187173,-0.6014201074815617,0.3681655955351578,0.28969944100467704,8.785466777040808,0.0,0.0
1.222444889779559,-0.28044530197797823,-0.4363506453053246,0.3714571467908992,0.16457756278706873,8.878342214918861,0.0,0.0
1.2424849699398797,-0.2858366435397063,-0.2695670780864024,0.37222229674728635,0.03825749781935703,8.896156619644275,0.0,0.0
1.2625250501002003,-0.2878858934080732,-0.10246249341834604,0.37045765908317885,-0.08823188320537509,8.841301735423295,0.0,0.0
1.282565130260521,-0.2866135520562925,0.06361706758903471,0.366179009685751,-0.21393246987139095,8.717394791488731,0.0,0.0
1.3026052104208417,-0.2820656682165866,0.22739419198529776,0.359419674831045,-0.33796674273530275,8.528932726273359,0.0,0.0
1.3226452905811623,-0.27431216430514066,0.3876751955722948,0.35022886151001664,-0.4595406660514176,8.28093156878888,0.0,0.0
1.342685370741483,-0.2634449933060706,0.5433585499535036,0.3386700571467177,-0.5779402181649465,7.978588522163534,0.0,0.0
1.3627254509018036,-0.24957625076254045,0.6934371271765063,0.3248196035404172,-0.6925226803150256,7.626993043953396,0.0,0.0
1.3827655310621243,-0.23283634625884475,0.8369952251847843,0.3087655215423238,-0.8027040999046724,7.230902096263642,0.0,0.0
1.4028056112224447,-0.21337231416750382,0.973201604567046,0.2906066326584254,-0.9079444441949184,6.794584572664542,0.0,0.0
1.4228456913827654,-0.19134631718540962,1.1012998491047103,0.2704519945047876,-1.0077319076818914,6.3217323838834565,0.0,0.0
1.442885771543086,-0.16693437100521774,1.2205973090095932,0.24842064066195627,-1.1015676921415654,5.815431092925955,0.0,0.0
1.4629258517034067,-0.1403252959996455,1.3304537502786127,0.2246415927719791,-1.1889523944988591,5.278180943418746,0.0,0.0
1.4829659318637274,-0.11171988276217973,1.4302706618732883,0.19925409379596754,-1.2693749488005783,4.711958908945742,0.0,0.0
1.503006012024048,-0.08133024283622926,1.5194819962975235,0.17240799599220208,-1.3423048901882721,4.118313235420637,0.0,0.0
1.5230460921843687,-0.04937930371593087,1.5975469560149198,0.1442642251846014,-1.4071885403800326,3.4984832042543,0.0,0.0
1.5430861723446894,-0.016100397842592797,1.6639452936669035,0.114995234286113,-1.463449544924421,2.8535380513835378,0.0,0.0
1.56312625250501,0.018263111477678104,1.718175466013545,0.08478535413334891,-1.5104940076382043,2.1845298723303186,0.0,0.0
1.5831663326653307,0.05345822875537298,1.759755863884744,0.05383094903513044,-1.5477202549109235,1.4926558280682303,0.0,0.0
1.6032064128256511,0.08922281329062581,1.788229226762641,0.022340288683083694,-1.5745330176023375,0.7794250540841222,0.0,0.0
1.6232464929859718,0.12528621801744108,1.8031702363407638,-0.009466942280092545,-1.5903615481588118,0.0468254382963359,0.0,0.0
1.6432865731462925,0.16137014135358382,1.8041961668071373,-0.04136056057510751,-1.5946809147507481,-0.7025150551148235,0.0,0.0
1.6633266533066131,0.19718974837991957,1.7909803513167866,-0.07310126981074169,-1.5870354617817088,-1.465178560223925,0.0,0.0
1.6833667334669338,0.2324551104843777,1.7632681052229064,-0.10444253439942586,-1.5670632294342082,-2.236826047858308,0.0,0.0
1.7034068136272544,0.2668730029999121,1.7208946257767217,-0.13513293461010156,-1.5345200105337853,-3.012093168845334,0.0,0.0
1.723446893787575,0.3001490881707885,1.663804258543818,-0.16491896864647126,-1.4893017018184855,-3.784523836623654,0.0,0.0
1.7434869739478958,0.3319904955643707,1.5920703696791108,-0.19354824199235404,-1.4314636672941383,-4.546554906856438,0.0,0.0
1.7635270541082164,0.3621087930387419,1.5059148737185577,-0.22077296080381253,-1.361235940572924,-5.289568243435802,0.0,0.0
1.783567134268537,0.39022331757943257,1.4057262270345334,-0.2463536249497375,-1.2790332072962478,-6.004028404884716,0.0,0.0
1.8036072144288577,0.4160648059201294,1.2920744170348402,-0.2700627968893851,-1.1854585969823814,-6.679723748838971,0.0,0.0
1.8236472945891782,0.43937922976427707,1.1657211922073842,-0.2916888041966506,-1.0813003653632736,-7.306119843712882,0.0,0.0
1.8436873747494988,0.4599317026131947,1.0276236424458824,-0.3110392183670856,-0.9675207085217491,-7.872824421256901,0.0,0.0
1.8637274549098195,0.4775102877782641,0.8789292582534683,-0.3279439411068792,-0.8452361369896806,-8.370134614454392,0.0,0.0
1.8837675350701402,0.49192951040276417,0.7209611312250034,-0.3422577308394785,-0.7156894866299658,-8.789616529855548,0.0,0.0
1.9038076152304608,0.5030333674857829,0.5551928541509368,-0.3538620203780615,-0.5802144769291502,-9.12464315858873,0.0,0.0
1.9238476953907815,0.5106976476639098,0.38321400890634366,-0.3626659176246465,-0.44019486232924965,-9.37081001833396,0.0,0.0
1.9438877755511021,0.5148314190806544,0.20668857083723177,-0.3686063435291477,-0.2970212952250572,-9.526160766304379,0.0,0.0
1.9639278557114228,0.515377614165587,0.02730975424662757,-0.37164733767460606,-0.15204970727291997,-9.59118616354871,0.0,0.0
1.9839679358717435,0.5123127230320503,-0.15324455667683315,-0.37177863898208324,-0.00656506537385948,-9.568602027468824,0.0,0.0
2.004008016032064,0.5056456869947652,-0.33335180186425406,-0.3690137123839665,0.1382463299058359,-9.46294929921532,0.0,0.0
2.024048096192385,0.49541614687006924,-0.5114770062347979,-0.36338743149373454,0.2813140445115985,-9.280084269621938,0.0,0.0
2.0440881763527052,0.4816922384376597,-0.6861954216204773,-0.35495363775757444,0.42168968680800556,-9.02663312979739,0.0,0.0
2.064128256513026,0.46456813785034595,-0.8562050293656875,-0.3437827808800804,0.5585428438747022,-8.709476735020088,0.0,0.0
2.0841683366733466,0.44416154621062887,-1.0203295819858538,-0.32995980995492336,0.6911485462578526,-8.335307982749418,0.0,0.0
2.1042084168336674,0.42061127389259434,-1.177513615901727,-0.31358244100523525,0.8188684474844057,-7.910298513612932,0.0,0.0
2.124248496993988,0.3940750433015556,-1.3268115295519365,-0.29475987394024805,0.9411283532493605,-7.439866233284551,0.0,0.0
2.1442885771543083,0.36472759068761224,-1.4673726306971706,-0.2736119903594957,1.0573941790376182,-6.928548122649787,0.0,0.0
2.164328657314629,0.33275910796552344,-1.5984241361044411,-0.2502690220082855,1.1671484175605091,-6.379960348736858,0.0,0.0
2.1843687374749496,0.2983740326508785,-1.7192537657322482,-0.2248716470799909,1.2698687464147291,-5.796829945412972,0.0,0.0
2.2044088176352705,0.26179016698700414,-1.8291932831937179,-0.19757144489117978,1.365010109440556,-5.181082432707511,0.0,0.0
2.224448897795591,0.22323808605718737,-1.9276040464908377,-0.16853161804386854,1.451991342365562,-4.533972202848876,0.0,0.0
2.244488977955912,0.1829607783023588,-2.013865387741428,-0.13792787411448493,1.5301871964691804,-3.8562453847598226,0.0,0.0
2.2645290581162323,0.1412134494707032,-2.08736644158278,-0.1059493458192014,1.5989264147641764,-3.148327423425538,0.0,0.0
2.284569138276553,0.09826341188662324,-2.1475018792039977,-0.07279941987709738,1.6574962971052007,-2.4105293715740803,0.0,0.0
2.3046092184368736,0.054389974632401736,-2.193671862711075,-0.038696341460065925,1.705153920851573,-1.643267810351305,0.0,0.0
2.3246492985971945,0.00988424667420422,-2.225286397909876,-0.0038734645765809914,1.7411438441742466,-0.8472935256803028,0.0,0.0
2.344689378757515,-0.03495123579118189,-2.2417741232693054,0.031420969718892564,1.7647217147736776,-0.02392381533625665,0.0,0.0
2.3647294589178354,-0.07980314433748442,-2.242595427315127,0.06692462511339206,1.775182769724975,0.8247271671011386,0.0,0.0
2.3847695390781563,-0.12434833717139375,-2.227259641695466,0.1023625010873049,1.7718937986956416,1.6955261853710069,0.0,0.0
2.4048096192384767,-0.16825525560564344,-2.195345921712484,0.13744903753468907,1.754326822369208,2.5841137327518107,0.0,0.0
2.4248496993987976,-0.2111858017189778,-2.146527305666718,0.1718908890138708,1.7220925739590869,3.4847202328609233,0.0,0.0
2.444889779559118,-0.25279774835254804,-2.0805973316785127,0.20539032696492554,1.674971897552736,4.39001685872036,0.0,0.0
2.464929859719439,-0.2927477174963943,-1.9974984571923113,0.23764919444188498,1.6129433738479715,5.291017461105815,0.0,0.0
2.4849699398797593,-0.33069474387620806,-1.897351318990688,0.26837330985199875,1.5362057705056886,6.177056401892581,0.0,0.0
2.50501002004008,-0.3663044142497244,-1.7804835186758157,0.2972771929754299,1.4451941561715593,7.0358770645520545,0.0,0.0
2.5250501002004007,-0.39925353568938193,-1.6474560719828792,0.32408896474958115,1.3405885887075615,7.853875425729252,0.0,0.0
2.5450901803607215,-0.4292352338954215,-1.4990849103019785,0.3485552466134096,1.2233140931914217,8.616542667939955,0.0,0.0
2.565130260521042,-0.4559643148440551,-1.3364540474316786,0.3704458530739439,1.0945303230267167,9.309134561299377,0.0,0.0
2.5851703406813624,-0.4791826451479133,-1.1609165151929102,0.38955803506957676,0.9556090997816441,9.917547015724917,0.0,0.0
2.6052104208416833,-0.4986642358330564,-0.9740795342571558,0.4057200071867283,0.8080986058575775,9.999999972858948,0.0,0.0
2.6252505010020037,-0.5143853165939453,-0.7860540380444438,0.4190216489503307,0.6650820881801208,9.999999999999888,0.0,0.0
2.6452905811623246,-0.5263525972684131,-0.5983640337233902,0.42957381289936225,0.5276081974515758,9.999999999999993,0.0,0.0
2.665330661322645,-0.5345714319909123,-0.4109417361249573,0.43746475039620913,0.3945468748423429,9.999999843463396,0.0,0.0
2.685370741482966,-0.5390458557837732,-0.2237211896430442,0.44276064657639597,0.2647948090093426,9.999999983807506,0.0,0.0
2.7054108216432864,-0.5397786170050951,-0.03663806106609882,0.4455060435273474,0.1372698475475723,9.999999998501854,0.0,0.0
2.7254509018036073,-0.5367712023870148,0.15037073090401512,0.44572413663545923,0.010904655405592323,9.99999999969216,0.0,0.0
2.7454909819639277,-0.5300238517779777,0.33736753045185597,0.44341693379525576,-0.11536014201017272,9.999999999687395,0.0,0.0
2.7655310621242486,-0.5195355616424736,0.5244145067752055,0.4385652731397417,-0.2425830327757037,9.999999999698767,0.0,0.0
2.785571142284569,-0.5053040770666979,0.7115742287887854,0.43112869877320514,-0.37182871832682773,9.999999999705802,0.0,0.0
2.8056112224448895,-0.487325872984932,0.8989102040882928,0.42104519813359176,-0.50417503198067,9.999999999586045,0.0,0.0
2.8256513026052104,-0.46559612638009573,1.0864873302418148,0.40823080921581667,-0.6407194458887534,9.999999998249402,0.0,0.0
2.845691382765531,-0.44010868249214785,1.2743721943973938,0.3925791116124349,-0.7825848801690869,9.999999936550243,0.0,0.0
2.8657314629258517,-0.4108560197765172,1.4626331357815316,0.3739606229197898,-0.9309244346322563,9.999999999994426,0.0,0.0
2.885771543086172,-0.3778292205012377,1.651339963763975,0.35222213210477604,-1.0869245407506898,9.75474497051786,0.0,0.0
2.905811623246493,-0.34111283655485053,1.8358191973193576,0.3273195140481722,-1.2451309028301898,9.067491677479428,0.0,0.0
2.9258517034068134,-0.3009615802039449,2.007562817545281,0.2994304580274454,-1.3944528010363422,8.355785418474735,0.0,0.0
2.9458917835671343,-0.25763945049390913,2.1661064855017886,0.26873294015940563,-1.5348758934019877,7.610137379976279,0.0,0.0
2.9659318637274548,-0.211423731678123,2.310785940789306,0.23541366110165757,-1.6659639528874026,6.831339577303608,0.0,0.0
2.9859719438877756,-0.16260498299539944,2.4409374341361776,0.19967052965080473,-1.7871565725426424,6.018144937835808,0.0,0.0
3.006012024048096,-0.111487772632446,2.5558605181476723,0.16171586364440232,-1.8977333003201196,5.168168411870321,0.0,0.0
3.0260521042084165,-0.05839179516213419,2.65479887351559,0.12177976251444805,-1.9968050564977136,4.27828240974943,0.0,0.0
3.0460921843687374,-0.0036532047654725813,2.7369295198330805,0.08011336760950621,-2.0833197452470915,3.345017313560473,0.0,0.0
3.066132264529058,0.052374006807717005,2.8013605786594793,0.03699171295190917,-2.156082732879852,2.3649802792569607,0.0,0.0
3.0861723446893787,0.10931676470460693,2.847137894844496,-0.007284138640191312,-2.213792579605024,1.3352922780895036,0.0,0.0
3.106212424849699,0.16678197773811676,2.8732606516754915,-0.05238596626815623,-2.255091381398246,0.25403766032758957,0.0,0.0
3.12625250501002,0.22435609381364055,2.8787058037761892,-0.09795851877522234,-2.2786276253533053,-0.8792820143448326,0.0,0.0
3.1462925851703405,0.2816053097529219,2.862460796964068,-0.1436210765652297,-2.283127889500368,-2.0632975763008705,0.0,0.0
3.1663326653306614,0.3380765848784362,2.823563756275716,-0.1889705248005708,-2.267472411767055,-3.2943283948490345,0.0,0.0
3.186372745490982,0.393299589485316,2.76115023034399,-0.23358590369123797,-2.2307689445333585,-4.565940324764503,0.0,0.0
