time,x,x_dot,theta,theta_dot,u,x_ref,theta_ref
0.0,-0.47706061913942843,0.04476117018240089,-0.07112426950160855,0.09304479127892165,-4.131184013833712,0.0,0.0
0.02004008016032064,-0.47775659767851825,-0.03479892695449173,-0.0673016894803941,0.1911290010607224,-3.810386557695298,0.0,0.0
0.04008016032064128,-0.4799198181336414,-0.10816102275615666,-0.0616797889571632,0.28109502616154475,-3.4835870419613784,0.0,0.0
0.06012024048096192,-0.4834245124846325,-0.17523471754955433,-0.05441297931034371,0.3633404823409747,-3.1323009814507765,0.0,0.0
0.08016032064128256,-0.488135825441846,-0.23556564786067652,-0.0456596400257773,0.4376669642283204,-2.759227847879031,0.0,0.0
0.1002004008016032,-0.49391080002663046,-0.2887487292392218,-0.035581684445172526,0.5038977790302388,-2.3670011338912733,0.0,0.0
0.12024048096192384,-0.5005993414368395,-0.33442707051045256,-0.024344146903778015,0.5618768770697257,-1.9582400126823705,0.0,0.0
0.1402805611222445,-0.5080451811004174,-0.37229198317889844,-0.012114747927109237,0.6114699488334389,-1.5355798122167665,0.0,0.0
0.16032064128256512,-0.5160868538237743,-0.40208363616784104,0.0009365883673424225,0.6525668147225829,-1.101707358576602,0.0,0.0
0.18036072144288576,-0.5245587021288783,-0.4235924152552026,0.014638288412853572,0.6850850022755575,-0.6593976000551964,0.0,0.0
0.2004008016032064,-0.5332919217026988,-0.436660978691024,0.028817774802797264,0.7089743194971845,-0.2115480903934242,0.0,0.0
0.22044088176352705,-0.5421156604451092,-0.4411869371205173,0.043302218035136154,0.7242221616169446,0.23879199943499613,0.0,0.0
0.24048096192384769,-0.5508581809612395,-0.43712602580651516,0.05791940264317715,0.7308592304020498,0.6884014842692132,0.0,0.0
0.2605210420841683,-0.5593480926063786,-0.4244955822569574,0.07249870870902365,0.7289653032923253,1.133878248381013,0.0,0.0
0.280561122244489,-0.5674156544955136,-0.4033780944567443,0.0868722020360571,0.7186746663516719,1.5716442750269137,0.0,0.0
0.3006012024048096,-0.5748941454178108,-0.3739245461148638,0.10087581847818473,0.7001808221063817,1.9979665193770864,0.0,0.0
0.32064128256513025,-0.5816212905859024,-0.33635725840458164,0.1143506205179619,0.6737401019888583,2.4089947401148954,0.0,0.0
0.3406813627254509,-0.5874407289056217,-0.29097191598596533,0.12714409759768258,0.6396738539860346,2.80081637522247,0.0,0.0
0.3607214428857715,-0.5922034983557345,-0.23813847250563983,0.13911147638222346,0.5983689392270441,3.1695272707567295,0.0,0.0
0.3807615230460922,-0.5957695115763832,-0.17830066103243805,0.15011700349757223,0.5502763557674394,3.5113156031383594,0.0,0.0
0.4008016032064128,-0.5980089893919348,-0.11197389077757808,0.16003516172780585,0.4959079115116815,3.822554801910012,0.0,0.0
0.42084168336673344,-0.5988038172623844,-0.039741393522477325,0.1687517814635082,0.4358309867851174,4.099899878076366,0.0,0.0
0.4408817635270541,-0.5980487890335546,0.03775141144149012,0.17616501253419475,0.37066155353432756,4.340380536433727,0.0,0.0
0.4609218436873747,-0.5956527041638524,0.11980424348510889,0.18218612738567821,0.30105574257417284,4.541484043907091,0.0,0.0
0.48096192384769537,-0.5915392889408123,0.20567076115200264,0.18674013459185096,0.22770036030863683,4.701221214667573,0.0,0.0
0.501002004008016,-0.5856479188742104,0.2945685033300961,0.18976619136665382,0.15130283874014272,4.818170110582972,0.0,0.0
0.5210420841683366,-0.5779341279726943,0.3856895450758062,0.191217814278241,0.07258114557935949,4.891494030090711,0.0,0.0
0.5410821643286573,-0.5683699002293104,0.47821138716919187,0.1910628978237558,-0.007745822724260221,4.920932807116999,0.0,0.0
0.561122244488978,-0.5569437484512395,0.5713075889035464,0.18928355993064325,-0.08896689465562789,4.9067690020028305,0.0,0.0
0.5811623246492986,-0.5436605946381952,0.664157690652219,0.18587584094819692,-0.17038594912231636,4.849772857722721,0.0,0.0
0.6012024048096192,-0.528541473622338,0.7559560507928562,0.18084928764977828,-0.251327664920932,4.751131608221635,0.0,0.0
0.6212424849699398,-0.5116230870322342,0.8459193295051899,0.1742264558550466,-0.3311415897365839,4.612369677086267,0.0,0.0
0.6412825651302605,-0.4929572375216142,0.9332924755310038,0.16604236450016466,-0.40920456774409636,4.4352664640712165,0.0,0.0
0.6613226452905812,-0.472610173589517,1.0173531966048577,0.1563439306172597,-0.4849216941452481,4.221777884010353,0.0,0.0
0.6813627254509018,-0.4506618734425432,1.0974150073486908,0.14518940923084214,-0.5577260693208782,3.9739667852891936,0.0,0.0
0.7014028056112224,-0.42720529262363927,1.172829040945197,0.1326478552596354,-0.6270776985603369,3.6939460533931716,0.0,0.0
0.721442885771543,-0.40234559506548406,1.2429848779077604,0.11879861678570657,-0.6924619236964418,3.383836804327588,0.0,0.0
0.7414829659318637,-0.3761993813547892,1.3073106855347425,0.10373086114752163,-0.753387781909247,3.0457427511519506,0.0,0.0
0.7615230460921844,-0.348893921818634,1.365272976807761,0.0875431277864724,-0.8093866680524612,2.681740683920068,0.0,0.0
0.781563126252505,-0.32056639599914255,1.416376290974571,0.07034289509327288,-0.8600116346599763,2.2938860809428454,0.0,0.0
0.8016032064128256,-0.29136313451911666,1.4601630740012936,0.05224614303330361,-0.9048376029984633,1.8842321656307386,0.0,0.0
0.8216432865731462,-0.26143885452650806,1.4962139996304293,0.03337688936169534,-0.9434626835804136,1.4548602084956004,0.0,0.0
0.8416833667334669,-0.23095587603418966,1.5241489246159197,0.01386667496996231,-0.9755107195866515,1.007918504419886,0.0,0.0
0.8617234468937875,-0.20008330367791186,1.5436286178138894,-0.006146026543635479,-1.0006350756798894,0.5456671887509079,0.0,0.0
0.8817635270541082,-0.16899615678713298,1.5543573445389431,-0.026516498582042088,-1.0185236019203303,0.0705258532507278,0.0,0.0
0.9018036072144289,-0.13787443025301568,1.5560863267058644,-0.04709459082933112,-1.0289046123644519,-0.4148792411170347,0.0,0.0
0.9218436873747494,-0.10690206951070083,1.5486180371157423,-0.067725663532394,-1.0315536351531436,-0.907671699100977,0.0,0.0
0.9418837675350701,-0.07626584503387893,1.5318112238410955,-0.08825167593413481,-1.0263006200870408,-1.404688739416117,0.0,0.0
0.9619238476953907,-0.046154115056677936,1.5055864988600494,-0.10851242063194498,-1.0130372348905086,-1.9024557096121693,0.0,0.0
0.9819639278557114,-0.016755469762521978,1.469932264707798,-0.12834689754265532,-0.9917238455355173,-2.3971749423938826,0.0,0.0
1.002004008016032,0.011742744138014911,1.4249106950268444,-0.14759481275554356,-0.9623957606444118,-2.884732424568021,0.0,0.0
1.0220440881763526,0.0391560127636547,1.3706634312819894,-0.16609817926032497,-0.9251683252390702,-3.360725431293774,0.0,0.0
1.0420841683366733,0.06530434499639051,1.3074166116367907,-0.1837029887442528,-0.880240474196392,-3.820513626005052,0.0,0.0
1.062124248496994,0.09001404127813034,1.2354848140869916,-0.200260916744353,-0.8278964000050097,-4.259295010831216,0.0,0.0
1.0821643286573146,0.11311951091273773,1.1552734817303691,-0.21563101780585636,-0.7685050530751681,-4.672206427895456,0.0,0.0
1.1022044088176353,0.134465099170216,1.067279412873915,-0.2296813633603342,-0.7025172777238928,-5.0544460390395605,0.0,0.0
1.122244488977956,0.15390687821995147,0.9720889524867725,-0.2422905732740138,-0.6304604956839789,-5.40141247894235,0.0,0.0
1.1422845691382766,0.17131435066424897,0.8703736222148748,-0.25334919293739083,-0.5529309831688529,-5.7088525113034825,0.0,0.0
1.1623246492985972,0.1865720121848818,0.7628830760316423,-0.26276087183132485,-0.47058394469670045,-5.973006534464054,0.0,0.0
1.1823647294589177,0.19958072139916117,0.6504354607139671,-0.2704433069831735,-0.38412175759243106,-6.19073979591475,0.0,0.0
1.2024048096192383,0.21025883093468428,0.5339054767761559,-0.27632892553525784,-0.29428092760421865,-6.359647230123364,0.0,0.0
1.222444889779559,0.2185430439051831,0.4142106485249407,-0.28036529421705525,-0.20181843408987044,-6.478121712321172,0.0,0.0
1.2424849699398797,0.2243889736809151,0.29229648878660025,-0.28251525875527256,-0.10749822691086575,-6.545379093440527,0.0,0.0
1.2625250501002003,0.22777140076878594,0.16912135439354248,-0.2827568316799162,-0.012078646232183896,-6.561438095648357,0.0,0.0
1.282565130260521,0.22868423702343185,0.04564181273229631,-0.2810828609305363,0.08369853746899537,-6.527058157123262,0.0,0.0
1.3026052104208417,0.22714022248552584,-0.07720072689530076,-0.2775005226138191,0.17911691583586103,-6.44364271403761,0.0,0.0
1.3226452905811623,0.22317039231237346,-0.198491508657619,-0.27203068810733244,0.2734917253243324,-6.313118480894344,0.0,0.0
1.342685370741483,0.2168233594502295,-0.3173516431071965,-0.26470721793033947,0.36617350884964794,-6.1378026776697086,0.0,0.0
1.3627254509018036,0.20816446244112516,-0.4329448504552175,-0.2555762325156362,0.45654927073516127,-5.920269887462124,0.0,0.0
1.3827655310621243,0.19727482720488476,-0.5444817618120199,-0.24469540383568109,0.5440414339977564,-5.663228650227392,0.0,0.0
1.4028056112224447,0.18425038740786823,-0.6512219898508264,-0.232133302714639,0.6281050560521048,-5.369415514933814,0.0,0.0
1.4228456913827654,0.16920090102659982,-0.7524743190634199,-0.21796882567816242,0.7082238518238291,-5.041511601032713,0.0,0.0
1.442885771543086,0.15224899193539168,-0.8475954545604071,-0.20229071339912574,0.7839056139518336,-4.682084182983714,0.0,0.0
1.4629258517034067,0.133529235734806,-0.935987810029285,-0.18519716108632484,0.8546776156400449,-4.2935536786022235,0.0,0.0
1.4829659318637274,0.11318729938383978,-1.01709681754831,-0.16679551023812803,0.9200825424098407,-3.8781848099318745,0.0,0.0
1.503006012024048,0.09137913510464085,-1.0904082139599467,-0.1472020015626544,0.979675433773681,-3.4380996082074122,0.0,0.0
1.5230460921843687,0.0682702209106944,-1.1554457096973223,-0.1265415609207751,1.0330220320939654,-2.9753092680298407,0.0,0.0
1.5430861723446894,0.04403483323016996,-1.211769384026222,-0.10494758414679864,1.0796988386988224,-2.4917615011463696,0.0,0.0
1.56312625250501,0.018855331605732772,-1.2589750812218594,-0.0825616827484901,1.1192950699154272,-1.989399876204614,0.0,0.0
1.5831663326653307,-0.007078568571024017,-1.2966950088378395,-0.059533350941932274,1.1514165903278912,-1.4702315572987796,0.0,0.0
1.6032064128256511,-0.03357056185083616,-1.324599663990607,-0.03601951534693559,1.175691779749834,-0.9363997964961951,0.0,0.0
1.6232464929859718,-0.060418584600394946,-1.3424011374779394,-0.012183931994086235,1.1917791676424678,-0.39025745068634987,0.0,0.0
1.6432865731462925,-0.08741573998196656,-1.34985776907858,0.011803598988237077,1.1993765491161656,0.16556234096292188,0.0,0.0
1.6633266533066131,-0.11435134099841299,-1.346780050822321,0.03576822272228915,1.1982311867026036,0.7280823681637678,0.0,0.0
1.6833667334669338,-0.14101209297067713,-1.3330375986132066,0.05953123490056535,1.1881506089138099,1.2939287238586896,0.0,0.0
1.7034068136272544,-0.16718343170164143,-1.308566936548215,0.08291150383650427,1.1690134467969457,1.8592938510961488,0.0,0.0
1.723446893787575,-0.19265102695973962,-1.273379762904909,0.10572709799758845,1.1407797080542093,2.4199199595526872,0.0,0.0
1.7434869739478958,-0.21720245281499792,-1.227571292762915,0.12779709553646848,1.1034998769440012,2.9711075478200892,0.0,0.0
1.7635270541082164,-0.2406290168433272,-1.1713282014164634,0.14894354046843278,1.0573222465982148,3.507753497937422,0.0,0.0
1.783567134268537,-0.2627277294285991,-1.1049356292635961,0.16899349919838114,1.0024979364974171,4.024422409263883,0.0,0.0
1.8036072144288577,-0.28330338263857185,-1.0287826604986376,0.1877811615977313,0.9393831199675081,4.515453254956327,0.0,0.0
1.8236472945891782,-0.3021706959794266,-0.943365667042737,0.20514992330873844,0.8684380855503568,4.975100862982534,0.0,0.0
1.8436873747494988,-0.31915647462389124,-0.8492889322232331,0.2209543810346185,0.7902228862940038,5.397708093984017,0.0,0.0
1.8637274549098195,-0.33410171569748476,-0.7472620536796755,0.2350621710103605,0.7053894987870996,5.777900158139907,0.0,0.0
1.8837675350701402,-0.3468635914138373,-0.6380937858176285,0.24735558347454153,0.6146706232090513,6.110787921795435,0.0,0.0
1.9038076152304608,-0.3573172358474957,-0.5226822216829178,0.2577328935176243,0.5188655021541387,6.392163290685667,0.0,0.0
1.9238476953907815,-0.36535726619844766,-0.4020015175475977,0.2661093615294619,0.41882340059188194,6.618667942725102,0.0,0.0
1.9438877755511021,-0.3708989801124807,-0.27708569570165115,0.2724178742783159,0.3154256374426996,6.7879177117438765,0.0,0.0
1.9639278557114228,-0.3738791875281161,-0.14901037078177262,0.27660921919772985,0.20956724597070014,6.89856906489932,0.0,0.0
1.9839679358717435,-0.37425665706082095,-0.018873476635241165,0.2786520076443915,0.10213942233308408,6.950320802844925,0.0,0.0
2.004008016032064,-0.3720121806433051,0.11222382087579202,0.2785322850881538,-0.005986127811885747,6.943852078677653,0.0,0.0
2.024048096192385,-0.3671482831164157,0.24319487634447146,0.27625288474506954,-0.11397001715421358,6.88070545705918,0.0,0.0
2.0440881763527052,-0.35968862296514614,0.37298300756347647,0.2718325939325025,-0.2210145406283538,6.7631295498314,0.0,0.0
2.064128256513026,-0.3496771443628424,0.5005739301151856,0.26530520821552067,-0.32636928584909086,6.593898866057377,0.0,0.0
2.0841683366733466,-0.3371770480737166,0.6250048144562892,0.25671854711462755,-0.42933305504465635,6.376128763007882,0.0,0.0
2.1042084168336674,-0.3222696495614931,0.7453699256111753,0.24613349759416916,-0.5292524760229189,6.113101263982116,0.0,0.0
2.124248496993988,-0.3050531877062133,0.8608230927639898,0.23362313922265088,-0.6255179185759151,5.808113875574681,0.0,0.0
2.1442885771543083,-0.28564163822153044,0.970577474234143,0.2192719895290717,-0.7175574846789586,5.464359325407748,0.0,0.0
2.164328657314629,-0.26416357376245814,1.073903222953614,0.20317539135046347,-0.8048299089304114,5.084840124913811,0.0,0.0
2.1843687374749496,-0.24076109930306938,1.1701237229694372,0.18543904728033142,-0.8868172035066031,4.6723185360848944,0.0,0.0
2.2044088176352705,-0.2155888778692447,1.258611071691235,0.16617869073553945,-0.963017827239599,4.229300095590079,0.0,0.0
2.224448897795591,-0.18881324902832347,1.3387814420460602,0.14551986937394232,-1.0329410680798563,3.7580473052189367,0.0,0.0
2.244488977955912,-0.16061143124458085,1.4100908891871309,0.12359780507445345,-1.0961032149744436,3.260619273738566,0.0,0.0
2.2645290581162323,-0.13117078963176868,1.4720320806406095,0.10055728573610749,-1.1520259669172976,2.7389327729559265,0.0,0.0
2.284569138276553,-0.10068814292132977,1.5241323355219454,0.07655253799066135,-1.2002373872723069,2.1948401369716044,0.0,0.0
2.3046092184368736,-0.06936907766472325,1.5659532628303257,0.051747026754718144,-1.2402755617971601,1.630219511860059,0.0,0.0
2.3246492985971945,-0.03742723380140975,1.597092193165675,0.026313127549382073,-1.2716949602668035,1.0470730353832125,0.0,0.0
2.344689378757515,-0.005083523736676816,1.6171855032366467,0.00043162080416594625,-1.2940753372608063,0.4476285209349138,0.0,0.0
2.3647294589178354,0.02743475302767024,1.6259138382173528,-0.02570903606700207,-1.3070328435584009,-0.16555989389825132,0.0,0.0
2.3847695390781563,0.05989493589219895,1.6230091432264353,-0.051913693364630184,-1.3102328648814057,-0.7895169091707981,0.0,0.0
2.4048096192384767,0.09206020232692305,1.6082633217362048,-0.0779817727762767,-1.3034039705823257,-1.4207621693049899,0.0,0.0
2.4248496993987976,0.1236909672290323,1.5815382451054627,-0.10370881782130842,-1.2863522522515856,-2.0552429326281283,0.0,0.0
2.444889779559118,0.15454650208006612,1.5427767425516907,-0.12888832320334379,-1.2589752691017682,-2.6882895093562706,0.0,0.0
2.464929859719439,0.1843867841390471,1.4920141029490495,-0.15331381912512032,-1.2212747960888275,-3.3146002909292513,0.0,0.0
2.4849699398797593,0.21297457448315535,1.4293895172054119,-0.17678117089895748,-1.1733675886918575,-3.9282636608928554,0.0,0.0
2.50501002004008,0.24007771014513984,1.3551567830992246,-0.19909103944296225,-1.1154934272002384,-4.522824053800518,0.0,0.0
2.5250501002004007,0.26547157993012066,1.2696934892490417,-0.2200514349452725,-1.0480197751155123,-5.091398394961954,0.0,0.0
2.5450901803607215,0.28894173606080836,1.1735078065343847,-0.23948028451425418,-0.9714424784490846,-5.626846484967329,0.0,0.0
2.565130260521042,0.3102865754780733,1.0672419708632483,-0.2572079255898052,-0.8863820537775504,-6.121994065837989,0.0,0.0
2.5851703406813624,0.3293200070437434,0.9516715782835066,-0.2730794312523647,-0.7935752831279753,-6.569900243696472,0.0,0.0
2.6052104208416833,0.34587400648737054,0.8276999721813557,-0.28695667281754406,-0.6938620782589664,-6.964152693691682,0.0,0.0
2.6252505010020037,0.359800952571875,0.6963473042252214,-0.29872003086478677,-0.5881679023621362,-7.299163801877931,0.0,0.0
2.6452905811623246,0.3709756392899078,0.5587343359016397,-0.3082696807418801,-0.477482493854667,-7.570439792281951,0.0,0.0
2.665330661322645,0.37929687012607793,0.41606154180850763,-0.31552640056975895,-0.36283599139394274,-7.7747870268213735,0.0,0.0
2.685370741482966,0.3846885644613547,0.26958471676383877,-0.3204318816485915,-0.24527405394162818,-7.910434106671809,0.0,0.0
2.7054108216432864,0.38710033749465045,0.1205886516647883,-0.322948554874875,-0.12583366131417456,-7.9770461468872655,0.0,0.0
2.7254509018036073,0.3865075546887198,-0.0296391402965345,-0.32305898521383924,-0.0055215169482129844,-7.975642613110597,0.0,0.0
2.7454909819639277,0.3829108964639383,-0.1798329112390742,-0.32076491313616984,0.11470360388346913,-7.90842198517756,0.0,0.0
2.7655310621242486,0.3763355021861745,-0.3287697138881898,-0.31608604545108393,0.23394338425429614,-7.778522725243067,0.0,0.0
2.785571142284569,0.36682978461264565,-0.47528587867644395,-0.3090587073369879,0.3513669057048015,-7.589749915756797,0.0,0.0
2.8056112224448895,0.3544640171734216,-0.6182883719612038,-0.29973446546902727,0.4662120933980316,-7.346297312799937,0.0,0.0
2.8256513026052104,0.3393287967604476,-0.7567610206486997,-0.28817882031100683,0.5777822579010209,-7.052490228941367,0.0,0.0
2.845691382765531,0.3215334757578193,-0.8897660501314132,-0.27447004651181334,0.6854386899596754,-6.71256751816532,0.0,0.0
2.8657314629258517,0.3012046415579178,-1.0164417099950753,-0.25869823705435585,0.7885904728728751,-6.330513222764678,0.0,0.0
2.885771543086172,0.27848470261771985,-1.1359969470098985,-0.24096458216134994,0.8866827446502948,-5.9099416159737315,0.0,0.0
2.905811623246493,0.25353061971375124,-1.2477041451984308,-0.22138089009686301,0.9791846032243466,-5.45403421410041,0.0,0.0
2.9258517034068134,0.22651280132533,-1.350890919421062,-0.200069335284709,1.0655777406077005,-4.965524034666639,0.0,0.0
2.9458917835671343,0.19761416420799044,-1.4449318558669777,-0.17716240031790384,1.1453467483402575,-4.446720715917945,0.0,0.0
2.9659318637274548,0.1670293448239902,-1.529240969200012,-0.15280296275525904,1.21797187813224,-3.8995696520175454,0.0,0.0
2.9859719438877756,0.13496403457115486,-1.6032655126417679,-0.12714446519825184,1.28292487785036,-3.3257385581541663,0.0,0.0
3.006012024048096,0.10163440165268975,-1.6664816459232552,-0.10035109811622933,1.3396683541011252,-2.7267254486226773,0.0,0.0
3.0260521042084165,0.06726655482214886,-1.7183923415270446,-0.07259791944456473,1.3876589335832297,-2.1039825912860537,0.0,0.0
3.0460921843687374,0.0320959989835344,-1.7585277919307227,-0.04407083343590239,1.4263543004331172,-1.4590514202869538,0.0,0.0
3.066132264529058,-0.003632970364425045,-1.7864484673979721,-0.01496635395620511,1.4552239739848638,-0.7937035723726633,0.0,0.0
3.0861723446893787,-0.03966798762004379,-1.8017508627809373,0.014508915352136671,1.473763465417089,-0.11008315669027657,0.0,0.0
3.106212424849699,-0.07574950484662793,-1.8040758613292072,0.04413913985770865,1.481511225278599,0.5891549067537791,0.0,0.0
3.12625250501002,-0.11161189551213294,-1.79311953327525,0.07370049157819358,1.4780675860242465,1.3007161288716944,0.0,0.0
3.1462925851703405,-0.14698481705006372,-1.7686460768965397,0.10296278630546549,1.4631147363635952,2.0205536463812765,0.0,0.0
3.1663326653306614,-0.1815948670192364,-1.7305024984586344,0.13169151943006946,1.4364366562301984,2.743778773682823,0.0,0.0
