time,x,x_dot,theta,theta_dot,u,x_ref,theta_ref
0.0,1.3802991711916062,-0.06780538176617862,0.023097818946276855,-0.026384011667145754,8.320674868750789,0.0,0.0
0.02004008016032064,1.3821832633896034,0.09420460989986343,0.017849888668287538,-0.26239651389946594,7.413222555062076,0.0,0.0
0.04008016032064128,1.3869550296320081,0.23858831212023773,0.008378728645689447,-0.47355800112990454,6.657091363712135,0.0,0.0
0.06012024048096192,1.3943221882577823,0.36835793128871375,-0.004933716148358922,-0.6656222397024184,5.839661053122495,0.0,0.0
0.08016032064128256,1.4039695023088377,0.4823657025527652,-0.02169320818225185,-0.8379746016946464,4.9775035873548585,0.0,0.0
0.1002004008016032,1.4155650199174223,0.5797758804292328,-0.041499959490606676,-0.9903375654177412,4.0748904233192835,0.0,0.0
0.12024048096192384,1.4287615523400536,0.6598266211315655,-0.06394846393845217,-1.122425222392275,3.133717018226431,0.0,0.0
0.1402805611222445,1.4431972820005603,0.7217864830253342,-0.08862633223958087,-1.2338934150564347,2.1554330426771804,0.0,0.0
0.16032064128256512,1.4584962648139141,0.764949140667696,-0.11511330840407849,-1.3243488082248809,1.1417794652098905,0.0,0.0
0.18036072144288576,1.4742691170483053,0.7886426117195554,-0.142980893934529,-1.3933792765225261,0.09532271543345305,0.0,0.0
0.2004008016032064,1.4901140890757074,0.7922486013701071,-0.17179283103829612,-1.4405968551883561,-0.980059958857673,0.0,0.0
0.22044088176352705,1.5056187004045491,0.775230566442091,-0.20110660916685183,-1.4656889064277858,-2.0787273479644783,0.0,0.0
0.24048096192384769,1.5203620893171037,0.7371694456277277,-0.23047608333548136,-1.468473708431477,-3.192861186031572,0.0,0.0
0.2605210420841683,1.533918207736256,0.677805920957615,-0.2594552202214007,-1.4489568442959673,-4.312113005529171,0.0,0.0
0.280561122244489,1.5458599641723463,0.5970878218045098,-0.2876029208763643,-1.4073850327481787,-5.4233498428713585,0.0,0.0
0.3006012024048096,1.5557643785826445,0.49522072051491184,-0.3144888060449551,-1.344294258429541,-6.510568573187495,0.0,0.0
0.32064128256513025,1.5632187516483729,0.3727186532864194,-0.33969978347651364,-1.2605488715779274,-7.5550809198194875,0.0,0.0
0.3406813627254509,1.567827755221273,0.23045017864500192,-0.3628471352920971,-1.1573675907791723,-8.536099333578363,0.0,0.0
0.3607214428857715,1.5692212092845665,0.06967270316467622,-0.383573754227176,-1.036330946753943,-9.43182481657185,0.0,0.0
0.3807615230460922,1.5670621337576112,-0.10795377634776746,-0.4015610307251845,-0.8993638249004248,-9.999999999993632,0.0,0.0
0.4008016032064128,1.5611397890008305,-0.2961172378390352,-0.4166524855520737,-0.7545727413444597,-9.999999999998218,0.0,0.0
0.42084168336673344,1.5514617446011902,-0.4839022199820102,-0.4289737245664875,-0.6160619507206913,-9.999999999999995,0.0,0.0
0.4408817635270541,1.5380342125061623,-0.6713766047513944,-0.43862770716016203,-0.48269912968372536,-9.999999748011307,0.0,0.0
0.4609218436873747,1.5208620859573632,-0.8586063274399574,-0.44569535694110324,-0.35338248904705927,-9.999999999999996,0.0,0.0
0.48096192384769537,1.4999489769678425,-1.0456554494760386,-0.45023607316873676,-0.2270358113816759,-9.999999999999996,0.0,0.0
0.501002004008016,1.4752972485179245,-1.2325864224958922,-0.45228812439483373,-0.10260256130484799,-9.999999999999423,0.0,0.0
0.5210420841683366,1.4469080374017314,-1.4194605558096562,-0.4518689102446165,0.02096070751086107,-9.9999999999972,0.0,0.0
0.5410821643286573,1.4147812663771973,-1.606338551226708,-0.4489750845690962,0.1446912837760148,-9.999999999999996,0.0,0.0
0.561122244488978,1.3789156446825526,-1.7932810847322302,-0.4435825366353918,0.2696273966852175,-9.999999999857405,0.0,0.0
0.5811623246492986,1.3393086569404615,-1.9803493871045552,-0.4356462308764825,0.3968152879454644,-9.999999999537257,0.0,0.0
0.6012024048096192,1.295956541329406,-2.167605780552773,-0.42509990949591664,0.5273160690282945,-9.999999999880544,0.0,0.0
0.6212424849699398,1.2488542588865277,-2.35511412214392,-0.41185566660497197,0.6622121445472324,-9.999999999972216,0.0,0.0
0.6412825651302605,1.1979954570572142,-2.5429400914656695,-0.3958034081661159,0.8026129219428032,-9.999999999999753,0.0,0.0
0.6613226452905812,1.1433724322784966,-2.731151238935884,-0.37681021951757476,0.9496594324270586,-9.999999999999734,0.0,0.0
0.6813627254509018,1.0849760986716868,-2.9198166803404897,-0.35471967249928843,1.1045273509143176,-9.999999999973026,0.0,0.0
0.7014028056112224,1.0227959730439502,-3.1090062813868293,-0.3293511181767505,1.2684277161268969,-9.999999997186837,0.0,0.0
0.721442885771543,0.9568201906242886,-3.2987891209830784,-0.30049903003499007,1.442604407088022,-9.99999999998188,0.0,0.0
0.7414829659318637,0.8870355715643367,-3.489230952997594,-0.2679324875641599,1.6283271235415084,-9.506371135872467,0.0,0.0
0.7615230460921844,0.8136194102279145,-3.670808066821108,-0.2316719598586217,1.8130263852769093,-8.620643273859985,0.0,0.0
0.781563126252505,0.736901307056584,-3.8359051585665274,-0.1919430879968661,1.9864435930877813,-7.689686696636378,0.0,0.0
0.8016032064128256,0.6572293373543078,-3.9835984851138093,-0.1489885101657675,2.1477288915549297,-6.709049411385547,0.0,0.0
0.8216432865731462,0.5749722037185018,-4.112856681790301,-0.10307381023233503,2.2957349966716234,-5.675774961501315,0.0,0.0
0.8416833667334669,0.4905206888247743,-4.222575744686376,-0.05449167665689508,2.4291066787719973,-4.575216558663213,0.0,0.0
0.8617234468937875,0.4042935083591387,-4.311359023281779,-0.00357171182349611,2.5459982416699485,-3.392252147838809,0.0,0.0
0.8817635270541082,0.31674315595796976,-4.377517620058446,0.04931077005928908,2.644124094139259,-2.124513652095588,0.0,0.0
0.9018036072144289,0.2283565239412218,-4.419331600837397,0.10373501281940563,2.7212121380058276,-0.7667367925840545,0.0,0.0
0.9218436873747494,0.13965637649406165,-4.435007372358007,0.1592351967385489,2.7750091959571637,0.7000735079549154,0.0,0.0
0.9418837675350701,0.0512079023725899,-4.422423706073587,0.21529464824316497,2.8029725752308035,2.2627289110281685,0.0,0.0
0.9619238476953907,-0.03638751596651371,-4.379770916955181,0.27136022883212585,2.8032790294480443,3.9111403262536193,0.0,0.0
0.9819639278557114,-0.12249743077028699,-4.305495740188664,0.3268555364379792,2.774765380292667,5.6504644941658215,0.0,0.0
1.002004008016032,-0.2064575170739792,-4.198004315184609,0.381185430319734,2.716494694087741,7.511427987597263,0.0,0.0
1.0220440881763526,-0.287560776890017,-4.055162990801892,0.4337262627139362,2.627041619710111,9.669283315820064,0.0,0.0
1.0420841683366733,-0.364990982895218,-3.871510300260048,0.48374034640683156,2.5007041846447677,10.0,0.0,0.0
1.062124248496994,-0.4386400044138212,-3.682451075930164,0.5314696028977489,2.386462824545869,9.999999999997108,0.0,0.0
1.0821643286573146,-0.5085263464037291,-3.494317099495392,0.5773145243109491,2.292246070660007,9.999999999994477,0.0,0.0
1.1022044088176353,-0.5746671414779637,-3.3070397537117326,0.6216617759659708,2.2173625827510857,10.0,0.0,0.0
1.122244488977956,-0.6370780149463943,-3.1205436734215253,0.6648860182937393,2.1612121163884224,10.0,0.0,0.0
1.1422845691382766,-0.6957730039237139,-2.934749448865983,0.707351985004761,2.12329833555109,10.0,0.0,0.0
1.1623246492985972,-0.7507645000040872,-2.749574804018669,0.7494167080419297,2.103236151858433,9.999999999999998,0.0,0.0
1.1823647294589177,-0.802063191966957,-2.564934598143484,0.7914318106349567,2.100755129651349,9.999999999999984,0.0,0.0
1.2024048096192383,-0.8496779899347842,-2.3807398983913606,0.8337458120533436,2.115700070919349,10.0,0.0,0.0
1.222444889779559,-0.8936159157634361,-2.1968962914325982,0.8767064031407382,2.1480295543697294,9.999999999999963,0.0,0.0
1.2424849699398797,-0.9338819466113895,-2.013301542397667,0.9206626619450442,2.197812940215297,9.999999999998783,0.0,0.0
1.2625250501002003,-0.9704787999832838,-1.8298426685947162,0.9659671850215578,2.2652261538256773,9.999999999998796,0.0,0.0
1.282565130260521,-1.0034066494422045,-1.6463924729460389,1.0129781132982878,2.350546413836501,9.999999999999972,0.0,0.0
1.3026052104208417,-1.0326627610111225,-1.462805578445905,1.062061032503709,2.4541459602710582,9.999999999999925,0.0,0.0
1.3226452905811623,-1.058241041461313,-1.2789140225095252,1.1135907275282348,2.5764847512262885,10.0,0.0,0.0
1.342685370741483,-1.0801314917270286,-1.094522513285773,1.167952767815096,2.7181020143430548,9.999999999999881,0.0,0.0
1.3627254509018036,-1.0983195622431368,-0.9094035258054067,1.2255448965107472,2.879606434782551,9.99999999999982,0.0,0.0
1.3827655310621243,-1.1127854129286718,-0.7232925342767569,1.2867781883653124,3.0616645927282646,9.999999999999778,0.0,0.0
1.4028056112224447,-1.1235030899648413,-0.5358838518084732,1.3520779276450474,3.26498696398675,9.999999999999535,0.0,0.0
1.4228456913827654,-1.1304396459460688,-0.3468277990613756,1.421884132925341,3.4903102640146835,9.99999999999918,0.0,0.0
1.442885771543086,-1.1335542514170802,-0.15573027355057234,1.496651612828727,3.738373995169299,9.999999999998503,0.0,0.0
1.4629258517034067,-1.1327973768793012,0.03784372688895837,1.5768493634807674,4.00988753260202,10.0,0.0,0.0
1.4829659318637274,-1.128110168432017,0.23436042236421206,1.6629589969520677,4.305481673565015,10.0,0.0,0.0
1.503006012024048,-1.1194242013920743,0.4342983519971322,1.755471696095804,4.625634957186804,10.0,0.0,0.0
1.5230460921843687,-1.1066618787945854,0.6381161298744418,1.854882895706134,4.970559980516506,6.814945706342664,0.0,0.0
1.5430861723446894,-1.0909022829851465,0.7879797904719454,1.9611942179654693,5.315566112966758,10.0,0.0,0.0
1.56312625250501,-1.0708953321754056,1.0003475404870492,2.075362742007301,5.708426202091593,-9.99999999999999,0.0,0.0
1.5831663326653307,-1.0539416883067791,0.8476821934313187,2.192462612047608,5.854993502015346,10.0,0.0,0.0
1.6032064128256511,-1.0326175382104752,1.0662075048152009,2.318155029594811,6.2846208773601475,-10.0,0.0,0.0
1.6232464929859718,-1.014366600708441,0.9125468751017104,2.4450263009907025,6.343563569794583,9.999999999993914,0.0,0.0
1.6432865731462925,-0.9917014620331682,1.1332569337636436,2.5807434468360615,6.78585729226794,-9.999999999999975,0.0,0.0
1.6633266533066131,-0.9722647945308018,0.9718333751183185,2.7154879828166303,6.737226799028446,9.999999999912866,0.0,0.0
1.6833667334669338,-0.9485059267718855,1.1879433879458168,2.8585612568308747,7.153663700712231,-9.999999999894293,0.0,0.0
1.7034068136272544,-0.9282734997652776,1.0116213503303928,2.9981995689950875,6.9819156082106435,10.0,0.0,0.0
1.723446893787575,-0.9039684355774437,1.2152532093916992,3.1447201030876584,7.326026704628548,-10.0,0.0,0.0
1.7434869739478958,-0.8835698007233308,1.0199317427056411,3.2853663039212555,7.032310041679856,8.431669252356723,0.0,0.0
1.7635270541082164,-0.8600644672397584,1.1752666741786228,3.429779637957905,7.220666701832486,-9.999999999997875,0.0,0.0
1.783567134268537,-0.8408035569560908,0.9630455141833804,3.5664225680927895,6.832146506744217,-5.104903550902382,0.0,0.0
1.8036072144288577,-0.8239873663723427,0.8408095291874014,3.697304455220344,6.544094356377717,-10.0,0.0,0.0
1.8236472945891782,-0.8115535212794184,0.6216922546462174,3.819505415900424,6.110048034003984,-9.779826321270225,0.0,0.0
1.8436873747494988,-0.8034094920916985,0.4072014593859906,3.933012158637705,5.675337136864061,-9.999999999999929,0.0,0.0
1.8637274549098195,-0.7995977789417094,0.1905856574994583,4.037774255787461,5.238104857487815,-5.397040606309717,0.0,0.0
1.8837675350701402,-0.7983362954964371,0.06307417226361073,4.135559444561282,4.889259438691023,-10.0,0.0,0.0
1.9038076152304608,-0.8012828675208248,-0.1473286012193827,4.224978854015943,4.470970472733062,-0.7830785414617001,0.0,0.0
1.9238476953907815,-0.804956716618091,-0.18369245486331176,4.308695642377739,4.185839418089768,-9.999999999999996,0.0,0.0
1.9438877755511021,-0.8126991578394744,-0.3871220610691721,4.384612639728056,3.7958498675158587,1.4350373134542185,0.0,0.0
1.9639278557114228,-0.8202478374587013,-0.37743398096134606,4.4550596726768426,3.5223516474393084,-5.383968013259926,0.0,0.0
1.9839679358717435,-0.8300481540898098,-0.4900158315554213,4.5189648463126,3.195258681787858,2.7034561651701825,0.0,0.0
2.004008016032064,-0.8390960559642696,-0.45239509372298803,4.57732008414643,2.9177618916914683,2.145252808924804,0.0,0.0
2.024048096192385,-0.8475521532860242,-0.4228048660877284,4.629971978621181,2.632594723737575,5.487092670579047,0.0,0.0
2.0440881763527052,-0.8541595873549687,-0.3303717034472228,4.6769956328582545,2.351182711853693,7.273455687801154,0.0,0.0
2.064128256513026,-0.8582318052495673,-0.20361089472993585,4.718281122551077,2.064274484641134,8.944054307182576,0.0,0.0
2.0841683366733466,-0.8591275340053468,-0.04478643778897637,4.753662330162934,1.7690603805928333,9.999999884846718,0.0,0.0
2.1042084168336674,-0.8564323236504199,0.1347605177463486,4.782950101704536,1.4643885770800935,9.999999989497587,0.0,0.0
2.124248496993988,-0.8501196323424568,0.3156345653981524,4.805993844945651,1.152187162055749,9.999999999998376,0.0,0.0
2.1442885771543083,-0.8401675856704879,0.4976023335984432,4.822677058446334,0.8341606750341262,9.999999999697842,0.0,0.0
2.164328657314629,-0.8265595116768997,0.680403699679413,4.832916424732088,0.5119683142877121,9.999999999999993,0.0,0.0
2.1843687374749496,-0.8092843100761514,0.8637600800374131,4.836661127225183,0.187235124654754,9.999999992711826,0.0,0.0
2.2044088176352705,-0.7883366795257709,1.047381527519028,4.833892436002965,-0.13843456111090446,9.999999999993234,0.0,0.0
2.224448897795591,-0.7637172198885805,1.230972981859516,4.824623592990401,-0.4634421506282132,9.991800867351568,0.0,0.0
2.244488977955912,-0.7354354009070309,1.4140909490774853,4.808900507448822,-0.7861542770789169,8.764207480265089,0.0,0.0
2.2645290581162323,-0.703950136288838,1.5742632309096443,4.7868656954999755,-1.10174059744234,7.325999031334407,0.0,0.0
2.284569138276553,-0.669802056280515,1.7074040004161464,4.758673830024727,-1.4095932737624366,5.778517978013101,0.0,0.0
2.3046092184368736,-0.6335761363438203,1.8112959968347397,4.724467813333125,-1.7103008345800819,4.176190718161614,0.0,0.0
2.3246492985971945,-0.5958815412711295,1.884729753634539,4.684359305458636,-2.0054253937244453,2.570292531595117,0.0,0.0
2.344689378757515,-0.5573328252824881,1.927435799432072,4.638412662510893,-2.297332147387157,1.0062370276571786,0.0,0.0
2.3647294589178354,-0.5185334955016336,1.9399664890427235,4.586633530540859,-2.588956598501711,-0.47809834191568723,0.0,0.0
2.3847695390781563,-0.48006251345662154,1.923549102250604,4.52896273989531,-2.883539532277424,-1.8529624774467248,0.0,0.0
2.4048096192384767,-0.4424638582144277,1.8799327621096913,4.465275681404738,-3.184352924528612,-3.0964987762619,0.0,0.0
2.4248496993987976,-0.40623891895425895,1.8112469630084376,4.3953870894911775,-3.494429595678007,-4.194171918144409,0.0,0.0
2.444889779559118,-0.3718413018843215,1.7198808534968706,4.319061079116687,-3.8163005187245074,-5.138404129241552,0.0,0.0
2.464929859719439,-0.33967365221208007,1.6083824836120724,4.2360262657485,-4.1517406684093245,-5.928517126548116,0.0,0.0
2.4849699398797593,-0.3100861472506584,1.4793752480710827,4.145995765330218,-4.501525020914105,-6.570786942963072,0.0,0.0
2.50501002004008,-0.28337632067273394,1.3354913288962247,4.048691812096535,-4.865197661684178,-7.078187753057305,0.0,0.0
2.5250501002004007,-0.25978976862413217,1.179327602430088,3.943874698654867,-5.240855672083396,-7.469143344340914,0.0,0.0
2.5450901803607215,-0.23952099988391545,1.013438437010836,3.83137586795187,-5.624941535149861,-7.7649828266860235,0.0,0.0
2.565130260521042,-0.22271339898600942,0.8403800448953012,3.7111351862839905,-6.012034083393975,-7.986204088486781,0.0,0.0
2.5851703406813624,-0.20945717160435545,0.6628113690826979,3.583242343907979,-6.394642118800576,-8.1479108057521,0.0,0.0
2.6052104208416833,-0.19978438570992205,0.48363929472167017,3.4479814062987604,-6.763046880460923,-8.255363159001249,0.0,0.0
2.6252505010020037,-0.1936610455177976,0.306167009606223,3.305875019244714,-7.105319352702304,-8.300894277956866,0.0,0.0
2.6452905811623246,-0.1909775474723941,0.1341749022701744,3.157720479171793,-7.407727003646039,-8.263294709477135,0.0,0.0
2.665330661322645,-0.1915404295741278,-0.028144105086685745,3.0046052750800945,-7.65576020458494,-8.110329451783228,0.0,0.0
2.685370741482966,-0.195069187867462,-0.17643791466670913,2.8478881537879746,-7.835856064605989,-7.8037281715036,0.0,0.0
2.7054108216432864,-0.20120096115989644,-0.3065886646217215,2.689137241013752,-7.9375456387111285,-7.304230593463044,0.0,0.0
2.7254509018036073,-0.20950258961049625,-0.41508142252999003,2.5300298664636065,-7.955368727507282,-6.573659287253266,0.0,0.0
2.7454909819639277,-0.21948519464607238,-0.49913025177880654,2.3722332073907477,-7.889832953642949,-5.5723420211772305,0.0,0.0
2.7655310621242486,-0.230613537346363,-0.5564171350145307,2.2172907627828846,-7.747122230393153,-4.2527196835063465,0.0,0.0
2.785571142284569,-0.24230273505886799,-0.5844598856252498,2.0665323398113147,-7.537921148578498,-2.5534702498611805,0.0,0.0
2.8056112224448895,-0.2538985356723439,-0.5797900306737948,1.9210094440112333,-7.276144790004063,-0.4067225464179054,0.0,0.0
2.8256513026052104,-0.2646451860497959,-0.5373325188726029,1.78144291982637,-6.978326209243171,2.2044706988964755,0.0,0.0
2.845691382765531,-0.2736646203692109,-0.45097171597074864,1.648164214995907,-6.663935241523144,5.055023819229731,0.0,0.0
2.8657314629258517,-0.28001919295738986,-0.3177286294089475,1.5210530196749645,-6.355559766047128,7.354996929185287,0.0,0.0
2.885771543086172,-0.28297840173834027,-0.14796043904752051,1.3995578006721452,-6.0747609501409645,7.954396808242741,0.0,0.0
2.905811623246493,-0.28242185089080535,0.027827542376746256,1.2829548824804808,-5.830145909583215,6.60423311852958,0.0,0.0
2.9258517034068134,-0.27892775167487344,0.17470496079659584,1.1707364335754873,-5.610922445249678,4.17569759209753,0.0,0.0
2.9458917835671343,-0.27346345964878166,0.27321460130458913,1.0627800155393192,-5.397820901808398,1.5383745257495645,0.0,0.0
2.9659318637274548,-0.26707553765709374,0.3193960995843971,0.9592842885038869,-5.174786351771616,-0.8858164946449256,0.0,0.0
2.9859719438877756,-0.26073776647865843,0.3168885589217659,0.8606431467836677,-4.9320570860109605,-2.978860539157498,0.0,0.0
3.006012024048096,-0.25530614325296025,0.271581161284908,0.767343392009962,-4.664987738685283,-4.74507536653657,0.0,0.0
3.0260521042084165,-0.25151675033894216,0.18946964570090324,0.6798950378613752,-4.372417707429341,-6.218717692149337,0.0,0.0
3.0460921843687374,-0.24999416401065788,0.07612931641421392,0.5987836809871457,-4.055567843711472,-7.4320815274836525,0.0,0.0
3.066132264529058,-0.2512595766802488,-0.0632706334795462,0.5244367107789565,-3.717348510409463,-8.40893706644666,0.0,0.0
3.0861723446893787,-0.2557367249569747,-0.2238574138362962,0.45719970982034674,-3.361850047930488,-9.165961563737866,0.0,0.0
3.106212424849699,-0.2637563849516734,-0.4009829997349356,0.3973217619892887,-2.993897391552902,-9.715760592717741,0.0,0.0
3.12625250501002,-0.2755605542816981,-0.5902084665012353,0.3449489379540644,-2.618641201761215,-9.999998983472798,0.0,0.0
3.1462925851703405,-0.2912802200269167,-0.7859832872609294,0.3000870012804256,-2.2430968336819395,-9.99999939780845,0.0,0.0
3.1663326653306614,-0.3109289661578584,-0.9824373065470836,0.2625888490109921,-1.8749076134716751,-9.999999745968925,0.0,0.0
3.186372745490982,-0.33451462623758965,-1.1792830039865614,0.23231546251280707,-1.5136693249092514,-9.999999998740034,0.0,0.0
3.2064128256513023,-0.36204120000463547,-1.3763286883522905,0.209143964909484,-1.1585748801661542,-9.820636976006174,0.0,0.0
3.226452905811623,-0.39344061273957665,-1.5699706367470596,0.19287164510933608,-0.8136159900073967,-9.398216960214189,0.0,0.0
3.2464929859719436,-0.4285489382228865,-1.7554162741654926,0.18318249024615763,-0.48445774315892326,-8.850020159457232,0.0,0.0
3.2665330661322645,-0.46715279690462247,-1.9301929340868007,0.17971611927656275,-0.17331854847974332,-8.194215236720726,0.0,0.0
