time,x,x_dot,theta,theta_dot,u,x_ref,theta_ref
0.0,-1.6574033314255026,-0.05263789868078006,0.12050978608255875,0.016432407212873562,-6.36075034951659,0.0,0.0
0.02004008016032064,-1.660969772039244,-0.178322030687078,0.12528571650526854,0.23879652113548927,-5.563296206994664,0.0,0.0
0.04008016032064128,-1.6667400374928263,-0.2885132726791184,0.1340737205973109,0.4394002046021177,-4.75897503972876,0.0,0.0
0.06012024048096192,-1.6744023749973973,-0.3831168752285457,0.14645810835926654,0.6192193880977811,-3.8619297066247547,0.0,0.0
0.08016032064128256,-1.6836096230804094,-0.4603624041506032,0.16199118301563445,0.7766537328183958,-2.9096702536785846,0.0,0.0
0.1002004008016032,-1.6939937882344411,-0.5192082577015888,0.180213188368081,0.9111002676223274,-1.9117304470898069,0.0,0.0
0.12024048096192384,-1.7051697419751208,-0.5587976870339866,0.20065618171936506,1.022149667564202,-0.8728749181532545,0.0,0.0
0.1402805611222445,-1.7167370983401857,-0.5783678182532491,0.22284536483912434,1.1094591559879645,0.2023000103266568,0.0,0.0
0.16032064128256512,-1.728282066078543,-0.5772483869178664,0.24630051666751002,1.1727575914192834,1.3081153131763577,0.0,0.0
0.18036072144288576,-1.7393797526115276,-0.5548843266492248,0.27053815400453607,1.2118818668513036,2.437174032485877,0.0,0.0
0.2004008016032064,-1.7495971469677323,-0.5108697178102322,0.29507462464834383,1.2268235321903893,3.579868671062098,0.0,0.0
0.22044088176352705,-1.7584969457720991,-0.4449899402183486,0.31943020401692107,1.2177789684288614,4.7239771916785855,0.0,0.0
0.24048096192384769,-1.7656423477068133,-0.3572700967357052,0.34313418664366846,1.1851991313373684,5.854390773259878,0.0,0.0
0.2605210420841683,-1.7706028908486926,-0.24802715709396986,0.3657308916991514,1.1298352527741482,6.953067630275155,0.0,0.0
0.280561122244489,-1.7729613248098022,-0.11792169805547698,0.38678641706591577,1.0527762683382182,7.99934836304507,0.0,0.0
0.3006012024048096,-1.7723213799516744,0.031997242906387724,0.40589586304732395,0.9554722990704093,8.970778712231956,0.0,0.0
0.32064128256513025,-1.7683161145459343,0.20026327028700552,0.42269059909411744,0.8397368023396745,9.844522322974361,0.0,0.0
0.3406813627254509,-1.7606163104546435,0.3849902045645438,0.43684498856900644,0.7077194737444511,9.999999998201295,0.0,0.0
0.3607214428857715,-1.7491690433057023,0.5723633574470607,0.4483954188302571,0.5775215130625324,9.999999999999991,0.0,0.0
0.3807615230460922,-1.7339800930191493,0.7594475143276443,0.45743882208052555,0.4521701625134239,9.999999999999995,0.0,0.0
0.4008016032064128,-1.7150540006519799,0.9463046183584735,0.46405128605924373,0.3306231989359084,9.999999999999996,0.0,0.0
0.42084168336673344,-1.6923941097316297,1.1329945460175028,0.46828856835884525,0.21186411498007623,9.999999999996964,0.0,0.0
0.4408817635270541,-1.6660025998915229,1.3195754920053377,0.47018648737213453,0.09489595066446303,9.999999999976453,0.0,0.0
0.4609218436873747,-1.6358805104926561,1.50610446994334,0.4697611804123158,-0.021265347990936892,9.999999999999998,0.0,0.0
0.48096192384769537,-1.6020277528794076,1.6926378806624236,0.4670092235764559,-0.1375978417929943,9.999999999991577,0.0,0.0
0.501002004008016,-1.5644431106615124,1.8792321108947578,0.4619076110617365,-0.25508062573597057,9.99999999999996,0.0,0.0
0.5210420841683366,-1.5231242280522899,2.0659441304611303,0.4544135943803152,-0.3747008340710653,9.999999999999996,0.0,0.0
0.5410821643286573,-1.4780675869313569,2.2528320560466515,0.4444643847050742,-0.4974604837620481,9.999999999981965,0.0,0.0
0.561122244488978,-1.429268474042229,2.4399556444563912,0.4319767248682625,-0.6243829918405864,9.99999999969546,0.0,0.0
0.5811623246492986,-1.376720940695642,2.627376667329355,0.4168463418255863,-0.7565191521338122,9.999999999971212,0.0,0.0
0.6012024048096192,-1.3204177586592114,2.815159101821531,0.3989472962679892,-0.8949522778798533,9.999999999999925,0.0,0.0
0.6212424849699398,-1.2603503777355982,3.0033690461806626,0.3781312542181443,-1.0408021024922451,9.999999999999744,0.0,0.0
0.6412825651302605,-1.19650889305366,3.1920742340969066,0.3542267167403315,-1.1952268738906406,9.999999999969479,0.0,0.0
0.6613226452905812,-1.1288820335619816,3.3813429745839176,0.3270382593699135,-1.3594228685209016,9.999999996605949,0.0,0.0
0.6813627254509018,-1.0574571878884715,3.5712422836755024,0.2963458537352106,-1.5346202817351449,9.999999999795335,0.0,0.0
0.7014028056112224,-0.9822204898947409,3.761834899686531,0.2619043713933396,-1.7220741170935492,9.454825439857593,0.0,0.0
0.721442885771543,-0.9033686977441091,3.942589607531586,0.2237499400464476,-1.9077215673445993,8.545858586612969,0.0,0.0
0.7414829659318637,-0.8212401450581833,4.106427634296287,0.18210976923163666,-2.0820085407405475,7.597340535068574,0.0,0.0
0.7615230460921844,-0.736189655443919,4.252524480713213,0.13722609340529723,-2.2441837913169715,6.59732891741903,0.0,0.0
0.781563126252505,-0.6485935990518409,4.379802819603906,0.08936618224489051,-2.392995558020336,5.52518534604108,0.0,0.0
0.8016032064128256,-0.5588582251742034,4.486768693881879,0.0388365428558082,-2.5264819694541156,4.372138683767236,0.0,0.0
0.8216432865731462,-0.4674232013699735,4.571751190211491,-0.014010898909496791,-2.6423720882652493,3.1334458539695307,0.0,0.0
0.8416833667334669,-0.37476333602381173,4.6329932673080885,-0.06877660513341811,-2.738285311196066,1.789199028924381,0.0,0.0
0.8617234468937875,-0.2813959251770612,4.668370542337527,-0.12500429441453723,-2.8113844640559553,0.3295750715210708,0.0,0.0
0.8817635270541082,-0.18788383861308028,4.675604328199045,-0.18217982402940455,-2.858776480743366,-1.217908190230162,0.0,0.0
0.9018036072144289,-0.0948237446555471,4.653004697876659,-0.23975363744081657,-2.8786906705706015,-2.8551692612998885,0.0,0.0
0.9218436873747494,-0.002845626896684897,4.59890588794311,-0.2971473059030152,-2.8696834231099295,-4.608354599616559,0.0,0.0
0.9418837675350701,0.0873783887697299,4.51120078332074,-0.3537472530361182,-2.8299973566551495,-6.487393290124906,0.0,0.0
0.9619238476953907,0.1751315509247698,4.387658107751995,-0.4089082305995269,-2.758048878170436,-8.540178173038221,0.0,0.0
0.9819639278557114,0.2596352370521213,4.225184306367576,-0.4619361135129988,-2.651394145673595,-9.999999999999952,0.0,0.0
1.002004008016032,0.34034499580744515,4.0354879377661925,-0.5124917164670965,-2.5277801477048847,-9.999999999987423,0.0,0.0
1.0220440881763526,0.41728021911673835,3.84676116546466,-0.5609974554355257,-2.425286948421462,-10.0,0.0,0.0
1.0420841683366733,0.49045899755003625,3.6589389216648947,-0.6078615500394837,-2.343204730197901,-10.0,0.0,0.0
1.062124248496994,0.5598979073632352,3.471945490659945,-0.6534796444267627,-2.2809047193639467,-10.0,0.0,0.0
1.0821643286573146,0.6256118748183702,3.2856983727567535,-0.6982367831963762,-2.237856938480677,-10.0,0.0,0.0
1.1022044088176353,0.6876140799281921,3.1001102554910953,-0.7425096028320443,-2.213640981783403,-10.0,0.0,0.0
1.122244488977956,0.7459158703773717,2.915089522458982,-0.7866686370025654,-2.207951708526056,-9.999999999999984,0.0,0.0
1.1422845691382766,0.8005266626865629,2.7305396154595596,-0.8310806621372842,-2.22060125673594,-9.999999999999758,0.0,0.0
1.1623246492985972,0.8514538121226679,2.5463574718052477,-0.8761110296514376,-2.25151837570767,-10.0,0.0,0.0
1.1823647294589177,0.8987024358673686,2.3624311872350354,-0.9221259448040665,-2.3007457576314465,-9.999999999999998,0.0,0.0
1.2024048096192383,0.9422751759789734,2.1786370055802373,-0.9694946609246028,-2.3684358060268162,-10.0,0.0,0.0
1.222444889779559,0.9821718901565701,1.9948357088798392,-1.0185915628587707,-2.4548450967083935,-10.0,0.0,0.0
1.2424849699398797,1.0183892596930153,1.8108684768222536,-1.0697981158577763,-2.5603276499502763,-9.999999999999103,0.0,0.0
1.2625250501002003,1.050920305788716,1.6265523047850305,-1.1235046563011821,-2.6853270221702945,-10.0,0.0,0.0
1.282565130260521,1.0797538081936904,1.441675120248723,-1.1801119986676738,-2.8303671183245847,-9.999999999998261,0.0,0.0
1.3026052104208417,1.10487362470778,1.255990825704482,-1.2400328284310866,-2.9960414881706385,-10.0,0.0,0.0
1.3226452905811623,1.1262579173790288,1.069214633562446,-1.303692841392881,-3.183000648089712,-9.999999999999961,0.0,0.0
1.342685370741483,1.1438783025900758,0.8810192605523548,-1.3715315730672148,-3.3919365837166944,-10.0,0.0,0.0
1.3627254509018036,1.1576989593239002,0.6910328366912225,-1.4440028313354616,-3.6235629134123326,-9.999999999993415,0.0,0.0
1.3827655310621243,1.1676757550182946,0.4988397847197205,-1.5215745923000308,-3.87858804822846,-9.999999999998007,0.0,0.0
1.4028056112224447,1.1737554845109663,0.3039864746335885,-1.6047281287559079,-4.157676822793854,-10.0,0.0,0.0
1.4228456913827654,1.1758753683783902,0.10599419337119376,-1.693955992435298,-4.461393183969504,-10.0,0.0,0.0
1.442885771543086,1.1739630268291752,-0.09561707746074688,-1.7897582382102708,-4.790112288748641,-10.0,0.0,0.0
1.4629258517034067,1.1679372383248567,-0.3012894252159216,-1.8926359302476061,-5.143884601866767,-5.867263945640338,0.0,0.0
1.4829659318637274,1.159223038536762,-0.4357099894047374,-2.0023629997243453,-5.4863534738369575,-10.0,0.0,0.0
1.503006012024048,1.1462227955290407,-0.6500121503860616,-2.120115166780692,-5.88760835281735,9.633598666209078,0.0,0.0
1.5230460921843687,1.1361230836404583,-0.5049855944291199,-2.2406089780136567,-6.024690561648219,-10.0,0.0,0.0
1.5430861723446894,1.1216241123663966,-0.7249485637030877,-2.36980375508414,-6.4597388535241755,-9.999999999963762,0.0,0.0
1.56312625250501,1.1026702387270948,-0.9476936819650925,-2.5078828032397773,-6.903952407781852,-9.999999999999968,0.0,0.0
1.5831663326653307,1.079241375524477,-1.1714431601308966,-2.65484723521801,-7.348221598911632,9.999999999999996,0.0,0.0
1.6032064128256511,1.059051653459067,-1.009486103270498,-2.800268591751021,-7.271067826650554,-9.999999999983494,0.0,0.0
1.6232464929859718,1.0345592209066639,-1.2246216276201605,-2.9537349077710893,-7.673315801003409,9.999999999999307,0.0,0.0
1.6432865731462925,1.0136926651396028,-1.0433277883530598,-3.1029588655191205,-7.4611978874015525,-9.999999999999993,0.0,0.0
1.6633266533066131,0.9888712642856612,-1.2410700426970802,-3.2583339300130056,-7.768753224694267,9.999999999993854,0.0,0.0
1.6833667334669338,0.9681184068745231,-1.0376428705569056,-3.406967051458836,-7.431656072291527,2.659923227352553,0.0,0.0
1.7034068136272544,0.9487517163587259,-0.9683345257898626,-3.5520537735183604,-7.2543361029762155,10.0,0.0,0.0
1.723446893787575,0.9337510523215234,-0.7500332018601243,-3.688794346355263,-6.83702864184513,9.999999999997431,0.0,0.0
1.7434869739478958,0.9231671227376628,-0.5291964791930355,-3.816823272905816,-6.401446327527656,9.999999999999652,0.0,0.0
1.7635270541082164,0.9169989260025041,-0.3084098367579337,-3.9360121343941823,-5.9594430744183144,9.647269211525861,0.0,0.0
1.783567134268537,0.9150750499437813,-0.09619380293613944,-4.046550288414319,-5.52690770100684,9.999999999999998,0.0,0.0
1.8036072144288577,0.9174662455951885,0.1195597825703599,-4.148471549953106,-5.096063076939329,2.9800071196398754,0.0,0.0
1.8236472945891782,0.9214926462833556,0.2013200344083506,-4.244116119646292,-4.782228484659292,9.999999999999998,0.0,0.0
1.8436873747494988,0.929691963498249,0.4099658607446708,-4.331693576052622,-4.378872820316511,0.1185424860763753,0.0,0.0
1.8637274549098195,0.9383545555568138,0.4331296029282377,-4.413557367554071,-4.093189575072425,7.649513313344928,0.0,0.0
1.8837675350701402,0.9501837636430769,0.5914604043131519,-4.488407741763185,-3.7425187104556805,-1.969648687205245,0.0,0.0
1.9038076152304608,0.9616014998120062,0.5708868084464642,-4.557665578449687,-3.462891834325152,-0.5510108693389142,0.0,0.0
1.9238476953907815,0.9730750547321637,0.5736777460078784,-4.6211043902900855,-3.171940592019913,-5.225430810866078,0.0,0.0
1.9438877755511021,0.9828539102332547,0.4889427750545522,-4.678922924226536,-2.890926696822545,-7.136687925061516,0.0,0.0
1.9639278557114228,0.9901982217542226,0.3672155760483913,-4.730990533982626,-2.603380487804518,-9.340099377246148,0.0,0.0
1.9839679358717435,0.9942642963711289,0.20330373084531936,-4.777091425026659,-2.3050445522016396,-9.99999978692053,0.0,0.0
2.004008016032064,0.9947721616788817,0.02539326538764325,-4.816983404024074,-1.9945989498707943,-9.999999999999995,0.0,0.0
2.024048096192385,0.9916851985955223,-0.15434815416797082,-4.850468550849423,-1.6742573412674309,-9.999999999980247,0.0,0.0
2.0440881763527052,0.9849712559968496,-0.3356971299336331,-4.877384935273247,-1.3458192211911535,-9.999999979297096,0.0,0.0
2.064128256513026,0.9746034414623773,-0.5183907267236141,-4.897605147364086,-1.011010604541969,-9.999999999994712,0.0,0.0
2.0841683366733466,0.9605606887719764,-0.7021376345200461,-4.911035012764735,-0.6714932700324693,-9.999999999999996,0.0,0.0
2.1042084168336674,0.9428281435435417,-0.8866272614217332,-4.917612565490561,-0.3288776362912848,-9.999999999996096,0.0,0.0
2.124248496993988,0.9213974048539918,-1.0715369344774952,-4.917307348725762,0.015260838239952557,-9.999999999999996,0.0,0.0
2.1442885771543083,0.896266651856208,-1.2565376498891898,-4.910120098419231,0.3593625153265638,-9.999999999968924,0.0,0.0
2.164328657314629,0.8674406715241842,-1.4412990166011856,-4.896082837953419,0.7018630232905811,-9.999999999999977,0.0,0.0
2.1843687374749496,0.8349307887149666,-1.6254941404608805,-4.875259379529848,1.0411729211785572,-9.860144621630889,0.0,0.0
2.2044088176352705,0.7988056323305057,-1.8062578192230454,-4.84775857902163,1.3750400254108937,-8.165396721424559,0.0,0.0
2.224448897795591,0.7597058938184549,-1.9549869256025445,-4.813833427843032,1.6962575589299038,-6.3058944760189135,0.0,0.0
2.244488977955912,0.7183366513254915,-2.06846212464817,-4.773717624502075,2.005790167047815,-4.41992112868088,0.0,0.0
2.2645290581162323,0.6754164390660717,-2.14601061297099,-4.727594041607713,2.3061791447181568,-2.5646489684394487,0.0,0.0
2.284569138276553,0.6316562413519555,-2.1880098857058106,-4.675575665348932,2.600918812939043,-0.7918070192515558,0.0,0.0
2.3046092184368736,0.5877408362965572,-2.1957702527699183,-4.617693506461052,2.8941079443940048,0.8562351681426004,0.0,0.0
2.3246492985971945,0.5443138358740695,-2.1713500211243875,-4.553892120134055,3.19006931634986,2.347687425688177,0.0,0.0
2.344689378757515,0.5019667118171416,-2.1173562028463935,-4.484032560220108,3.4929779956973883,3.6609080458932977,0.0,0.0
2.3647294589178354,0.4612314278771835,-2.0367641969979036,-4.407902240533877,3.80651598431154,4.7835798571877,0.0,0.0
2.3847695390781563,0.4225760901787867,-1.9327668849198392,-4.325231120285627,4.133556012412501,5.7121137207293255,0.0,0.0
2.4048096192384767,0.38640304622237154,-1.8086521978207601,-4.235713666676629,4.4758726804499105,6.451375238056793,0.0,0.0
2.4248496993987976,0.3530489279457534,-1.667705913830907,-4.139036057904023,4.8338804386303105,7.01452048561498,0.0,0.0
2.444889779559118,0.32278615405962113,-1.5131386943066134,-4.034908036483191,5.206401071041578,7.422240758877606,0.0,0.0
2.464929859719439,0.2958252364043358,-1.3480458827642685,-3.923098823910583,5.590460628630418,7.700799778165849,0.0,0.0
2.4849699398797593,0.2723169437815137,-1.1754146311411027,-3.8034766332991317,5.9811095305725575,7.878763562163953,0.0,0.0
2.50501002004008,0.2523532024802904,-0.9981870650611645,-3.676051344464632,6.371264441724968,7.982538982883026,0.0,0.0
2.5250501002004007,0.23596568764169326,-0.8193757419298575,-3.5410194301069384,6.751595717884687,8.031335126527928,0.0,0.0
2.5450901803607215,0.2231216002604754,-0.6422043690608938,-3.3988085727123605,7.110542869728895,8.032710600925704,0.0,0.0
2.565130260521042,0.21371727926449455,-0.470216049799042,-3.250116051491455,7.4346260610452735,7.979958793118302,0.0,0.0
2.5851703406813624,0.2075718225888366,-0.3072728337828968,-3.095930558428693,7.709274653138087,7.852471589570424,0.0,0.0
2.6052104208416833,0.20442414604752554,-0.15738382706555387,-2.9375241201066844,7.920321916100438,7.619363158819649,0.0,0.0
2.6252505010020037,0.20393682689278397,-0.02436595773707767,-2.7764032571846022,8.056043146104104,7.244839642694457,0.0,0.0
2.6452905811623246,0.20570773598024308,0.08854545437295558,-2.614218993058856,8.109213206287308,6.692366665162116,0.0,0.0
2.665330661322645,0.20928633260907384,0.17892983144153723,-2.4526504252888612,8.07842838849976,5.925007571443892,0.0,0.0
2.685370741482966,0.21418778830570379,0.24507278483149703,-2.293286809181922,7.968180805346952,4.901284099361093,0.0,0.0
2.7054108216432864,0.21989711719181912,0.2854664443057671,-2.137530571138886,7.787811902151804,3.568795834493188,0.0,0.0
2.7254509018036073,0.22585781751242703,0.2980350160303957,-1.9865296403648047,7.55004653870406,1.862807125344221,0.0,0.0
2.7454909819639277,0.23144492539649245,0.27935539420327055,-1.8411306714347215,7.269948446504161,-0.2690948175921857,0.0,0.0
2.7655310621242486,0.23593405588516372,0.22445652443356326,-1.7018341649519737,6.9648253241373945,-2.7597053815436023,0.0,0.0
2.785571142284569,0.23850841127654349,0.12871776956898787,-1.5687386583770075,6.654775328748306,-5.158833211291562,0.0,0.0
2.8056112224448895,0.23840217723273283,-0.005311702190532369,-1.441511198184604,6.361373009620178,-6.465212399830049,0.0,0.0
2.8256513026052104,0.23524602745778425,-0.157807488747429,-1.3195215748840192,6.099481165029246,-5.910236869525754,0.0,0.0
2.845691382765531,0.22933824887022725,-0.29538892937785066,-1.202198138338548,5.866171827273558,-3.92583231223095,0.0,0.0
2.8657314629258517,0.22149187447470262,-0.3923187197762309,-1.0893092525286434,5.6444442904952306,-1.4418909536510047,0.0,0.0
2.885771543086172,0.21270363565247422,-0.43941194111142046,-0.9809747439550499,5.416725428679676,0.9677020040753304,0.0,0.0
2.905811623246493,0.20394810783194076,-0.4377763910266724,-0.8775509723753766,5.1711885789836645,3.102476554638289,0.0,0.0
2.9258517034068134,0.1961034129120462,-0.392234745994728,-0.7795196699752734,4.901565120005157,4.933529039330836,0.0,0.0
2.9458917835671343,0.18993706470497948,-0.30831741035333504,-0.6874085314456451,4.605556926481419,6.48251051946915,0.0,0.0
2.9659318637274548,0.18610947224233648,-0.19137962313214948,-0.6017358547130816,4.283633836628174,7.776091057462715,0.0,0.0
2.9859719438877756,0.18517950883013906,-0.046498170609870826,-0.5229703869362823,3.9382733888399617,8.834453588567893,0.0,0.0
3.006012024048096,0.1876085902589114,0.12145407143861736,-0.4515022673121768,3.5734059812052728,9.671233557570506,0.0,0.0
3.0260521042084165,0.1937635990114321,0.30775043762603543,-0.3876237955995709,3.193923585630295,9.999999869960131,0.0,0.0
3.0460921843687374,0.20380533585098923,0.5020868419778556,-0.33136069969345217,2.8131547953059375,9.999999999999957,0.0,0.0
3.066132264529058,0.217757018425085,0.6975841287047886,-0.28255175559905366,2.4404472047199244,9.999999999999991,0.0,0.0
3.0861723446893787,0.23563300466234643,0.8937993118630726,-0.24103068304855096,2.0760536275251344,9.999999728095156,0.0,0.0
3.106212424849699,0.2574412379694975,1.0904116653575537,-0.20663659678183519,1.719704313335789,9.999999863758669,0.0,0.0
3.12625250501002,0.28318533651511885,1.2872049272810668,-0.17922274635889718,1.3706925211468999,9.99999966175994,0.0,0.0
3.1462925851703405,0.31286629163958557,1.4840477562233354,-0.15866350621105552,1.0279620073920837,9.999999999999984,0.0,0.0
3.1663326653306614,0.34648378361108617,1.6808745985750309,-0.14485971287810467,0.6901896666475416,9.999999736670755,0.0,0.0
3.186372745490982,0.38403714107781994,1.877667873336688,-0.13774250252071799,0.3558605178693347,9.633175289212435,0.0,0.0
3.2064128256513023,0.4253830316564472,2.0672945289313613,-0.13706355362328015,0.03394744487189222,8.935009259328767,0.0,0.0
3.226452905811623,0.4702495838741942,2.243327610887349,-0.14241571251748508,-0.26760794471024646,8.124193325045585,0.0,0.0
3.2464929859719436,0.5183217595517323,2.4036087838769067,-0.1533587083044585,-0.5471497893486709,7.222085745504229,0.0,0.0
3.2665330661322645,0.5692496885745782,2.5463964511422965,-0.169430073077705,-0.8035682386623247,6.234554688875084,0.0,0.0
