time,x,x_dot,theta,theta_dot,u,x_ref,theta_ref
0.0,0.7366668126221669,-0.006337606356486308,0.13649346790075134,-0.031936038428261676,8.20155269495588,0.0,0.0
0.02004008016032064,0.7396976080551334,0.15153977164832094,0.1319650002005468,-0.22642338501022688,7.562324052377164,0.0,0.0
0.04008016032064128,0.7456384784439739,0.29704351944202273,0.12388529714199546,-0.4039851529275671,7.001087785312032,0.0,0.0
0.06012024048096192,0.7542735932247282,0.431755739037717,0.11252383518855608,-0.5680730976719696,6.3971104220733,0.0,0.0
0.08016032064128256,0.7653714818021224,0.5548944288697102,0.09815370010819333,-0.7185067540181374,5.755307886034961,0.0,0.0
0.1002004008016032,0.7786867174721583,0.6657617835017968,0.08105147826136078,-0.8551110923416274,5.078976557532567,0.0,0.0
0.12024048096192384,0.7939609875602127,0.7637135044027197,0.06149794480762791,-0.9776766726866436,4.370686826691702,0.0,0.0
0.1402805611222445,0.8109239102135767,0.8481461326681969,0.03977895429186912,-1.0859495257879395,3.632442275193587,0.0,0.0
0.16032064128256512,0.8292936687932703,0.9184879289846813,0.016186388817161276,-1.179628273735392,2.865931744743244,0.0,0.0
0.18036072144288576,0.8487775679462505,0.9741949576490124,-0.008981012511612544,-1.258370066438691,2.072801209211919,0.0,0.0
0.2004008016032064,0.8690726200586697,1.0147526056209597,-0.0354171089192757,-1.3218048203831578,1.2549325664999458,0.0,0.0
0.22044088176352705,0.8898662701257233,1.0396825033526804,-0.06280824540302057,-1.3695568241872433,0.41471963060319206,0.0,0.0
0.24048096192384769,0.9108373622576434,1.0485546065960059,-0.09083369343729539,-1.4012724017137408,-0.4446675720117367,0.0,0.0
0.2605210420841683,0.9316574424800851,1.0410040111220813,-0.11916673315476095,-1.4166519858732778,-1.3190392128788173,0.0,0.0
0.280561122244489,0.9519924804241786,1.0167518972046736,-0.14747642705490271,-1.4154846950070883,-2.202973051841375,0.0,0.0
0.3006012024048096,0.9715050769144289,0.9756298245125142,-0.17543009408515864,-1.397683351512796,-3.0896458766573356,0.0,0.0
0.32064128256513025,0.9898572048436491,0.9176063964610117,-0.20269645098884267,-1.363317845184202,-3.9707267436077602,0.0,0.0
0.3406813627254509,1.0067135058398824,0.8428150498116677,-0.22894934678441278,-1.3126447897785058,-4.836356169198313,0.0,0.0
0.3607214428857715,1.021745133068027,0.7515813614072254,-0.25387197653268917,-1.2461314874138198,-5.675242050488143,0.0,0.0
0.3807615230460922,1.0346340887410452,0.6444477836509096,-0.27716142132761074,-1.1644722397460776,-6.474907154401206,0.0,0.0
0.4008016032064128,1.045077951895831,0.5221931577392923,-0.298533321357343,-1.068595001486615,-7.222115608694124,0.0,0.0
0.42084168336673344,1.0527948301533765,0.3858439128772746,-0.3177264501677878,-0.9596564405222382,-7.903490500634784,0.0,0.0
0.4408817635270541,1.0575283036507312,0.23667367486774282,-0.3345069239313536,-0.8390236881782908,-8.506291751538322,0.0,0.0
0.4609218436873747,1.0590520755930526,0.07618859711606293,-0.34867176404829514,-0.7082420058470775,-9.019279646952826,0.0,0.0
0.48096192384769537,1.0571740175296067,-0.09390290317229186,-0.36005154639727366,-0.5689891174489252,-9.433543487247825,0.0,0.0
0.501002004008016,1.0517393149970247,-0.27173512662909816,-0.36851192801324845,-0.42301908079873807,-9.74315375342042,0.0,0.0
0.5210420841683366,1.042632487868684,-0.4553413564170383,-0.3739539431721956,-0.2721007579473591,-9.945514193482339,0.0,0.0
0.5410821643286573,1.029778172478957,-0.6427157694863432,-0.37631309258377105,-0.11795747057877298,-9.999999999095909,0.0,0.0
0.561122244488978,1.013156665004411,-0.8310753737273022,-0.375579660760854,0.03667159114585372,-9.999999998631713,0.0,0.0
0.5811623246492986,0.9927677660058302,-1.019444949929046,-0.37174783998262556,0.19159103891141954,-9.940306479149406,0.0,0.0
0.6012024048096192,0.9686327901731121,-1.2067487916359017,-0.3648185371572767,0.34646514126744266,-9.747296515160045,0.0,0.0
0.6212424849699398,0.9408230692912988,-1.3904860440906677,-0.3548396484769184,0.49894443401791333,-9.475140304805304,0.0,0.0
0.6412825651302605,0.9094391479817576,-1.5691960654770603,-0.3418782676212221,0.648069042784815,-9.131355409098973,0.0,0.0
0.6613226452905812,0.8746080533666518,-1.7415547307552925,-0.3260185002499057,0.79298836856582,-8.724280383393282,0.0,0.0
0.6813627254509018,0.8364802808907982,-1.9063886237926797,-0.30735915444927203,0.9329672900316824,-8.261330515769107,0.0,0.0
0.7014028056112224,0.7952271575112113,-2.0626561689793403,-0.2860121129674988,1.0673520740886626,-7.7487681516000215,0.0,0.0
0.721442885771543,0.7510386595407872,-2.2094248985212053,-0.26210139537731975,1.1955358795089517,-7.191571359197094,0.0,0.0
0.7414829659318637,0.704121725814857,-2.34584668629651,-0.23576288660929648,1.3169254384011635,-6.59341871888427,0.0,0.0
0.7615230460921844,0.6546990629812657,-2.4711331416795685,-0.20714466397132497,1.4309111318985757,-5.956760780853107,0.0,0.0
0.781563126252505,0.6030084066846972,-2.5845328148284223,-0.17640782122039622,1.536842137546438,-5.282957499535234,0.0,0.0
0.8016032064128256,0.5493021768632362,-2.685311491073052,-0.1437276603341505,1.6340080443122866,-4.572464532760671,0.0,0.0
0.8216432865731462,0.493847446124018,-2.772736536960911,-0.10929509860055525,1.7216280866797624,-3.825056877643708,0.0,0.0
0.8416833667334669,0.4369261254096508,-2.84606603571836,-0.07331811984347823,1.7988489378538508,-3.040081971019047,0.0,0.0
0.8617234468937875,0.3788352599523758,-2.9045432728637484,-0.0360230852578636,1.8647517292807316,-2.216736450496036,0.0,0.0
0.8817635270541082,0.31988732053925617,-2.9473969706559835,0.0023442860632066076,1.9183685660535106,-1.35436137690535,0.0,0.0
0.9018036072144289,0.2604103705970685,-2.973847497109383,0.041518451140754586,1.958708253877399,-0.45275035716625156,0.0,0.0
0.9218436873747494,0.2007479889758652,-2.983119081060164,0.08121425637472815,1.984790261698678,0.48753565683813194,0.0,0.0
0.9418837675350701,0.14125883181616597,-2.974457857984962,0.1211279602131568,1.9956851919214331,1.4648534278818692,0.0,0.0
0.9619238476953907,0.08231572424997538,-2.94715537830953,0.16093914715366003,1.9905593470251621,2.4761684245835283,0.0,0.0
0.9819639278557114,0.02430418291716982,-2.900577066640278,0.20031355765382258,1.9687205250081274,3.5167566914223007,0.0,0.0
1.002004008016032,-0.03237971821316444,-2.834195056516713,0.2389067994272219,1.9296620886699654,4.579921732448442,0.0,0.0
1.0220440881763526,-0.08733221505871973,-2.7476248422777645,0.27636885355776514,1.8731027065271624,5.656732133371271,0.0,0.0
1.0420841683366733,-0.14014551976397122,-2.640665235262574,0.3123492516364885,1.7990199039361696,6.735793428511124,0.0,0.0
1.062124248496994,-0.19041234071465313,-2.513341047534095,0.34650278101440424,1.7076764688957844,7.803085266383494,0.0,0.0
1.0821643286573146,-0.23773129146519723,-2.3659475375272057,0.37849557033510695,1.5996394660351339,8.841925650695517,0.0,0.0
1.1022044088176353,-0.2817131846117853,-2.199094657329403,0.4080114035878759,1.4757916626384477,9.833164004984308,0.0,0.0
1.122244488977956,-0.321988131446885,-2.0137473417549834,0.43475808794915594,1.337334218064,9.999999996524783,0.0,0.0
1.1422845691382766,-0.3585043754047832,-1.825812197894911,0.45886946532054645,1.2055688685695247,9.99999999999987,0.0,0.0
1.1623246492985972,-0.39127338314779603,-1.6384503871506406,0.480547421799546,1.083897823949978,9.999999999923828,0.0,0.0
1.1823647294589177,-0.42030542034209994,-1.451601859715197,0.499974308319254,0.9713443259853987,9.999999999999998,0.0,0.0
1.2024048096192383,-0.44560961360157464,-1.2652096629737355,0.517314083756084,0.8669887718415034,9.999999999991303,0.0,0.0
1.222444889779559,-0.4671940243034177,-1.0792205350921542,0.5327134340069465,0.7699675125431236,9.999999999999998,0.0,0.0
1.2424849699398797,-0.48506572665767733,-0.8935851177129805,0.5463028370588797,0.6794701525966601,9.999999999999998,0.0,0.0
1.2625250501002003,-0.49923088497569323,-0.7082579159007951,0.5581975547039825,0.5947358822551401,10.0,0.0,0.0
1.282565130260521,-0.5096948268979894,-0.5231970961148102,0.5684985390526192,0.5150492174318372,10.0,0.0,0.0
1.3026052104208417,-0.516462110604673,-0.3383641853341762,0.5772932471758974,0.4397354061639114,10.0,0.0,0.0
1.3226452905811623,-0.5195365848893009,-0.1537237142313964,0.58465636068458,0.36815567543413297,9.999999999999961,0.0,0.0
1.342685370741483,-0.5189214415433164,0.03075716729921968,0.5906504092948652,0.2997024305142578,9.99999999997233,0.0,0.0
1.3627254509018036,-0.5146192598563113,0.2151090843502583,0.5953262987903759,0.23379447477553178,9.999999999996838,0.0,0.0
1.3827655310621243,-0.5066320432489066,0.39936083037023484,0.5987237445203474,0.16987228649857516,9.999999999999998,0.0,0.0
1.4028056112224447,-0.49496124816481935,0.583539754204364,0.600871611863598,0.10739336716253173,10.0,0.0,0.0
1.4228456913827654,-0.4796078053882298,0.7676721388294783,0.601788165071542,0.04582766039719514,9.999999999999988,0.0,0.0
1.442885771543086,-0.46057213394564944,0.9517835721290158,0.6014812256810872,-0.01534696952273714,10.0,0.0,0.0
1.4629258517034067,-0.43785414771432246,1.1358993115663485,0.5999482413323134,-0.0766492174386901,10.0,0.0,0.0
1.4829659318637274,-0.41145325480447326,1.3200446454924595,0.5971762653926023,-0.13859879698555538,10.0,0.0,0.0
1.503006012024048,-0.3813683497202522,1.5042452542110523,0.5931418473240069,-0.20172090342976684,9.999999999985253,0.0,0.0
1.5230460921843687,-0.3475977982427014,1.6885275738775396,0.587810833275326,-0.26655070243404383,9.999999999999993,0.0,0.0
1.5430861723446894,-0.3101394149261699,1.8729191658265723,0.5811380759767333,-0.3336378649296369,10.0,0.0,0.0
1.56312625250501,-0.26899043306761716,2.057449092927638,0.5730670527117128,-0.4035511632510285,10.0,0.0,0.0
1.5831663326653307,-0.2241474670087283,2.2421483029444427,0.5635293899992279,-0.47688313562424456,10.0,0.0,0.0
1.6032064128256511,-0.17560646668148266,2.4270500163622826,0.5524442937199721,-0.5542548139627895,10.0,0.0,0.0
1.6232464929859718,-0.12336266443239302,2.612190112454482,0.5397178838737866,-0.6363204923092742,10.0,0.0,0.0
1.6432865731462925,-0.06741051439248111,2.797607501995596,0.5252424341117866,-0.7237724880999972,9.999999999999977,0.0,0.0
1.6633266533066131,-0.00774362504515444,2.9833444673663334,0.5088955178529236,-0.8173458129431468,9.99999999999987,0.0,0.0
1.6833667334669338,0.05564531375424088,3.169446939969766,0.49053906545237425,-0.9178226200274696,10.0,0.0,0.0
1.7034068136272544,0.12276460714935755,3.3559646697558336,0.470018340919191,-1.0260362266591625,9.999999999999964,0.0,0.0
1.723446893787575,0.19362363156482,3.542951220773121,0.44716085259172655,-1.14287441637322,10.0,0.0,0.0
1.7434869739478958,0.26823290552929796,3.7304636982238994,0.4217752206393132,-1.2692815976206673,9.99999999999996,0.0,0.0
1.7635270541082164,0.346604147016497,3.9185620743599507,0.39365003612427674,-1.406259225751823,10.0,0.0,0.0
1.783567134268537,0.42875030562507205,4.107307930428752,0.36255276269247805,-1.5548636715899344,10.0,0.0,0.0
1.8036072144288577,0.5146855529791446,4.2967623677036295,0.32822875401678314,-1.7162004337847463,10.0,0.0,0.0
1.8236472945891782,0.604425208207556,4.486982761420567,0.2904004892552472,-1.8914132380767987,9.999999999885134,0.0,0.0
1.8436873747494988,0.6979855669843963,4.678017938842015,0.24876716625237247,-2.081666150143736,10.0,0.0,0.0
1.8637274549098195,0.7953835922576568,4.869901263663024,0.2030048387000924,-2.2881163776140037,10.0,0.0,0.0
1.8837675350701402,0.8966364126587517,5.062641020054749,0.1527673383209211,-2.5118750189585652,9.999999999999682,0.0,0.0
1.9038076152304608,1.001760561525506,5.256207443337712,0.09768828299076676,-2.7539527665077164,9.999999999999998,0.0,0.0
1.9238476953907815,1.110770877449139,5.450515796181648,0.03738452861619517,-3.0151877187285794,9.999999999964915,0.0,0.0
1.9438877755511021,1.2236789799754202,5.645405126314059,-0.0285385385709487,-3.2961533593571932,6.569950433836724,0.0,0.0
1.9639278557114228,1.339152822563283,5.77369212939314,-0.09847392484008316,-3.4967693134567224,2.541942457024893,0.0,0.0
1.9839679358717435,1.455622482474172,5.8234829955444525,-0.17047260228902275,-3.5999338724469796,-0.9984074098418136,0.0,0.0
2.004008016032064,1.5717083712371513,5.804294438148971,-0.2429012295580982,-3.6214313634537723,-4.141396701394029,0.0,0.0
2.024048096192385,1.6861903361054014,5.724098243412502,-0.31440942863237337,-3.575409953713759,-6.94440421833186,0.0,0.0
2.0440881763527052,1.7979883459620938,5.589900492834625,-0.38390872409614313,-3.4749647731884883,-9.464761305663446,0.0,0.0
2.064128256513026,1.906141644915187,5.407664947654652,-0.4505430434636184,-3.331715968373764,-10.0,0.0,0.0
2.0841683366733466,2.010463853073455,5.216110407913399,-0.5145662831734786,-3.201161985493011,-9.999999999999982,0.0,0.0
2.1042084168336674,2.1109756881812496,5.025591755389716,-0.5765092778119277,-3.0971497319224572,-9.999999999999957,0.0,0.0
2.124248496993988,2.2076965995894837,4.8360455704117005,-0.6368911423623405,-3.019093227520636,-9.99999999999923,0.0,0.0
2.1442885771543083,2.3006441126880217,4.647375654926893,-0.6962200681505455,-2.9664462894102526,-10.0,0.0,0.0
2.164328657314629,2.3898333268961407,4.459460710405958,-0.754994858646961,-2.938739524820779,-10.0,0.0,0.0
2.1843687374749496,2.475276496950314,4.272158502708661,-0.8137069378601899,-2.935603960661445,-9.999999999999998,0.0,0.0
2.2044088176352705,2.5569826420031743,4.085307252643014,-0.8728426278975039,-2.956784501865702,-10.0,0.0,0.0
2.224448897795591,2.6349571392765627,3.898724863669422,-0.9328855428267984,-3.002145746464721,-10.0,0.0,0.0
2.244488977955912,2.7092012690701996,3.7122064896818365,-0.9943189840945623,-3.0716720633882,-9.999999999999575,0.0,0.0
2.2645290581162323,2.7797116866060896,3.5255208767945048,-1.0576282501039855,-3.165463300471157,-10.0,0.0,0.0
2.284569138276553,2.846479804524925,3.3384058959417606,-1.1233027906211246,-3.28372702585695,-9.999999999999979,0.0,0.0
2.3046092184368736,2.909491079081898,3.1505637278486573,-1.1918381460392056,-3.4267677709040507,-9.999999999999993,0.0,0.0
2.3246492985971945,2.9687242046847797,2.9616562801440804,-1.2637376112097407,-3.5949732585267586,-9.999999999999998,0.0,0.0
2.344689378757515,3.0241502371672135,2.771301624121694,-1.3395135501980435,-3.788796949415143,-10.0,0.0,0.0
2.3647294589178354,3.0757316883427674,2.5790725587777024,-1.4196882551711278,-4.008735248654218,-10.0,0.0,0.0
2.3847695390781563,3.123421665820302,2.3844988738767268,-1.5047941781194825,-4.255296147417735,-10.0,0.0,0.0
2.4048096192384767,3.1671631764735424,2.187075532662012,-1.5953732503408542,-4.528953611068584,-9.99999999999999,0.0,0.0
2.4248496993987976,3.2068887739436986,1.9862798735078084,-1.691974816042397,-4.830078285077139,-10.0,0.0,0.0
2.444889779559118,3.2425208153133633,1.7816020684832234,-1.795151410249913,-5.1588297103758,-10.0,0.0,0.0
2.464929859719439,3.2739727040549247,1.5725944370780625,-1.905451172509565,-5.514988112982605,-10.0,0.0,0.0
2.4849699398797593,3.3011516352969714,1.3589465621023378,-2.0234050860970325,-5.897695679373376,-10.0,0.0,0.0
2.50501002004008,3.3239635113979777,1.140593805050314,-2.149506501932101,-6.305070791753428,-9.999999999987594,0.0,0.0
2.5250501002004007,3.3423208149269525,0.9178651764487309,-2.284179719546595,-6.733660880724721,-9.999999999999998,0.0,0.0
2.5450901803607215,3.356154204676308,0.6916694874677698,-2.427734206641046,-7.177724354722555,-9.999999999994687,0.0,0.0
2.565130260521042,3.365428233718799,0.4637014521245532,-2.5803022485310323,-7.628402094499309,-0.4657515693734027,0.0,0.0
2.5851703406813624,3.3738055732550234,0.41886697681121665,-2.7371360894103627,-7.841692043966524,-9.999999999999995,0.0,0.0
2.6052104208416833,3.3777549544119276,0.1974690578452169,-2.9023846062216623,-8.262425840564982,9.999999999999995,0.0,0.0
2.6252505010020037,3.385210630206061,0.37278378970667425,-3.0639189280169212,-8.076716089762954,-9.99999999999997,0.0,0.0
2.6452905811623246,3.3886448783486998,0.17171240713193858,-3.231919424891373,-8.400024843722603,9.999999999999984,0.0,0.0
2.665330661322645,3.396128914206785,0.3742017929042509,-3.39334371543477,-8.07121452716983,-9.056135615737515,0.0,0.0
2.685370741482966,3.400478999904746,0.21750428489804233,-3.5578541093038707,-8.22551969345505,9.999999999999984,0.0,0.0
2.7054108216432864,3.4093174727423796,0.4419236418816847,-3.713834626343883,-7.799025852000601,-6.0836862505252665,0.0,0.0
2.7254509018036073,3.416588687572943,0.3635607415281721,-3.8686081355859896,-7.738675462105332,8.266855301127471,0.0,0.0
2.7454909819639277,3.4278751088449657,0.5643210636011254,-4.014978786956181,-7.318532568509571,-8.217911184985763,0.0,0.0
2.7655310621242486,3.4369901135173104,0.455750233617228,-4.158935718494551,-7.197846576918483,-2.2953849828178647,0.0,0.0
2.785571142284569,3.4461928813139693,0.46013838983294075,-4.297824420466886,-6.944435098616757,-9.99999999999999,0.0,0.0
2.8056112224448895,3.4526297301233013,0.32184244046661226,-4.433004657082433,-6.759011830777401,-9.9999999999988,0.0,0.0
2.8256513026052104,3.4562850196722668,0.18276447744826815,-4.5636862803993745,-6.5340811658470805,-9.999999999997252,0.0,0.0
2.845691382765531,3.4571065354263264,0.04107578770297646,-4.689185791359437,-6.274975548003102,-10.0,0.0,0.0
2.8657314629258517,3.455013498287328,-0.10465185694992957,-4.808911924750546,-5.9863066695554465,-9.999999999860275,0.0,0.0
2.885771543086172,3.44990509559039,-0.2554201348468855,-4.922353455445159,-5.67207653473067,-10.0,0.0,0.0
2.905811623246493,3.4416687285464356,-0.41181835219772933,-5.02907040400232,-5.335847427858056,-9.999999999996762,0.0,0.0
2.9258517034068134,3.4301874289754957,-0.5740649785469851,-5.128688398033042,-4.98089970153612,-9.999999999946592,0.0,0.0
2.9458917835671343,3.4153460939229454,-0.7420667526275231,-5.2208951350698785,-4.610336851841802,-9.99999999993472,0.0,0.0
2.9659318637274548,3.397036341721182,-0.9154876100881624,-5.305437624455399,-4.227124469276008,-9.999999999998705,0.0,0.0
2.9859719438877756,3.3751599279283417,-1.093820689642004,-5.382119025649781,-3.834070059719133,-9.999999999980885,0.0,0.0
3.006012024048096,3.3496307814690014,-1.2764573229670226,-5.45079428952148,-3.4337631935849218,-9.999999999997064,0.0,0.0
3.0260521042084165,3.32037582459238,-1.4627478438310593,-5.511364289765211,-3.0285000121865835,-9.999999999988482,0.0,0.0
3.0460921843687374,3.2873348143392933,-1.652050512654337,-5.563768571891466,-2.620214106312728,-10.0,0.0,0.0
3.066132264529058,3.2504594806699445,-1.843766683467448,-5.607977162774176,-2.2104295441355144,-9.99999999999988,0.0,0.0
3.0861723446893787,3.209712237513715,-2.037362157811481,-5.643982044878154,-1.8002441051988853,-10.0,0.0,0.0
3.106212424849699,3.1650647154121527,-2.2323761050781044,-5.671788922344517,-1.390343873318151,-9.999999999994296,0.0,0.0
3.12625250501002,3.116496319792287,-2.4284197809932833,-5.691409833843967,-0.9810455749725491,-10.0,0.0,0.0
3.1462925851703405,3.0639929688357594,-2.6251675478263685,-5.702857047895491,-0.5723607025761637,-10.0,0.0,0.0
3.1663326653306614,3.007546118064029,-2.822342538586534,-5.7061385493582195,-0.16407507313643022,-9.999999999904613,0.0,0.0
3.186372745490982,2.9471521397085456,-3.0196989177741576,-5.701255314377062,0.24416174905786708,-9.99999999994918,0.0,0.0
3.2064128256513023,2.8828120943949465,-3.2170022656799615,-5.688200482733443,0.6527415821809691,-10.0,0.0,0.0
3.226452905811623,2.8145319084815803,-3.4140092956683086,-5.666960466695313,1.062000801906484,-9.999999999999998,0.0,0.0
3.2464929859719436,2.7423229486626557,-3.6104479909462244,-5.637517972082236,1.4721247306538627,-9.999999999867606,0.0,0.0
3.2665330661322645,2.666202961637457,-3.8059993512599375,-5.59985683578837,1.8830568146932924,-9.999999999157371,0.0,0.0
3.286573146292585,2.586197316600804,-4.000282251832636,-5.553968491971637,2.294417190836668,-9.999999999999998,0.0,0.0
3.306613226452906,2.5023404493506667,-4.1928433625068715,-5.49985976113437,2.705436541863357,-9.999999999999998,0.0,0.0
