time,x,x_dot,theta,theta_dot,u,x_ref,theta_ref
0.0,-1.8104340581461158,0.0036444355079173485,-0.05005657465148233,-0.0542642953372144,-9.999999999999996,0.0,0.0
0.02004008016032064,-1.8142483972621137,-0.19071695579989292,-0.04561598577897636,0.22202944362529847,-9.99999999999999,0.0,0.0
0.04008016032064128,-1.8219513925579989,-0.38514976479425755,-0.03562008133227774,0.49979522233493123,-9.999999051748343,0.0,0.0
0.06012024048096192,-1.8335462594127152,-0.5797433427358155,-0.020002987665908085,0.7808546833184827,-9.21318418728245,0.0,0.0
0.08016032064128256,-1.8487307517828206,-0.7592246185052745,0.0008765683369671151,1.04397780014376,-8.116069473350258,0.0,0.0
0.1002004008016032,-1.8670825784686373,-0.9175913342908335,0.02650930746984589,1.2816369566439387,-6.938883568633333,0.0,0.0
0.12024048096192384,-1.8881487444475469,-1.053308298945482,0.05636534192549136,1.4928017227822736,-5.696289876965361,0.0,0.0
0.1402805611222445,-1.9114509050514135,-1.165108030193326,0.08989899605799903,1.6766827066253833,-4.386074672055867,0.0,0.0
0.16032064128256512,-1.936484311305913,-1.251670312724974,0.12654498116804275,1.8322992555021862,-3.002893146752516,0.0,0.0
0.18036072144288576,-1.9627157485566993,-1.3115718625393213,0.1657141665052967,1.9584592668626968,-1.5416266624260735,0.0,0.0
0.2004008016032064,-1.989581796173306,-1.3433023808303386,0.20679098036748303,2.0538406931093167,0.0010428638770259013,0.0,0.0
0.22044088176352705,-2.016488012915953,-1.3453108371323528,0.24913325672111103,2.1171138176813993,1.6254782359706197,0.0,0.0
0.24048096192384769,-2.0428094548605875,-1.316072097231715,0.29207487408284577,2.147080868086738,3.32803917705012,0.0,0.0
0.2605210420841683,-2.0678928544181283,-1.2541699778770385,0.3349312168717177,2.1428171394435944,5.099992107986459,0.0,0.0
0.280561122244489,-2.091060772371411,-1.1583958976641413,0.37700726226847536,2.1038022698378853,6.926205592370339,0.0,0.0
0.3006012024048096,-2.1116180955162682,-1.0278661572428731,0.4176080091278826,2.0300373429703615,8.783452988262928,0.0,0.0
0.32064128256513025,-2.1288613981337328,-0.8621651308732274,0.4560510578667701,1.9221524369443754,9.999999999999956,0.0,0.0
0.3406813627254509,-2.1423374562726654,-0.6738029069466405,0.4920119060012785,1.798042406725419,9.999999999999998,0.0,0.0
0.3607214428857715,-2.1520620178342136,-0.4862280780774066,0.525792064867099,1.6890079432910259,10.0,0.0,0.0
0.3807615230460922,-2.158049645660659,-0.29938139132226244,0.5576763098141561,1.5942122473528557,10.0,0.0,0.0
0.4008016032064128,-2.160313734350156,-0.1132044344748592,0.5879342987140489,1.5128994449946445,9.999999999999009,0.0,0.0
0.42084168336673344,-2.1588665616521525,0.07235863490019012,0.6168223017166731,1.4444001501312098,9.999999999999982,0.0,0.0
0.4408817635270541,-2.153719358457791,0.25736015971806825,0.6445849831623878,1.388134072285737,9.999999999999993,0.0,0.0
0.4609218436873747,-2.1448823860387365,0.44184862095274424,0.6714571964745344,1.343610665607333,10.0,0.0,0.0
0.48096192384769537,-2.1323650125101272,0.6258686764304651,0.697665767302951,1.3104285414208305,9.999999999999995,0.0,0.0
0.501002004008016,-2.1161757827913728,0.8094614859377229,0.7234312504240217,1.2882741560535298,10.0,0.0,0.0
0.5210420841683366,-2.096322477852748,0.9926652469312403,0.7489696529523198,1.2769201264149048,9.999999999999988,0.0,0.0
0.5410821643286573,-2.072812159954506,1.1755158949121023,0.7744941210810161,1.276223406434819,10.0,0.0,0.0
0.561122244488978,-2.0456512010506858,1.358047945191005,0.8002165904441241,1.2861234681553966,9.999999999999996,0.0,0.0
0.5811623246492986,-2.014845291646596,1.5402954702044933,0.8263494017248134,1.3066405640344647,10.0,0.0,0.0
0.6012024048096192,-1.9803994272428875,1.7222932201854197,0.8531068836375764,1.3378740956381479,9.999999999975019,0.0,0.0
0.6212424849699398,-1.9423178691253529,1.904077905876734,0.8807069051117038,1.3800010737063741,9.999999999999998,0.0,0.0
0.6412825651302605,-1.9006040757101248,2.085689670761399,0.9093723975553765,1.4332746221836328,2.4817383368268837,0.0,0.0
0.6613226452905812,-1.8580666524093339,2.126871165039547,0.9419166209412351,1.6272111692929332,10.0,0.0,0.0
0.6813627254509018,-1.8118953161280207,2.3085668140656592,0.9760085417949853,1.7045960426875095,3.0745559036815857,0.0,0.0
0.7014028056112224,-1.7646634792418299,2.361591844309538,1.0140768396706719,1.9034148937843314,10.0,0.0,0.0
0.721442885771543,-1.7137898951005321,2.543679207064891,1.0542494316099753,2.0086295969651715,4.761523931207663,0.0,0.0
0.7414829659318637,-1.6612073658885718,2.6291264605980227,1.0982664339116566,2.2008501150840654,9.999999999999938,0.0,0.0
0.7615230460921844,-1.6049666685355903,2.8120348676490696,1.1450199234426666,2.337674476550502,8.458834502817346,0.0,0.0
0.781563126252505,-1.5456239582535038,2.9671355141043203,1.1952044651014273,2.5092270829380414,9.99999999998566,0.0,0.0
0.8016032064128256,-1.4825957466374646,3.151410580801956,1.2488290748228554,2.681230486071409,9.999999999999996,0.0,0.0
0.8216432865731462,-1.4158620753450168,3.3366835646223936,1.3062703574036563,2.872064129040041,9.999999998082476,0.0,0.0
0.8416833667334669,-1.3453973073118228,3.5232384016597025,1.3679212295898346,3.0825436093089214,9.999999999999284,0.0,0.0
0.8617234468937875,-1.2711692581359975,3.7114024587912735,1.4341912495068472,3.313500995850624,9.999999999988631,0.0,0.0
0.8817635270541082,-1.1931383117987486,3.901547316862442,1.5055065169392845,3.565763371621869,9.999999999998995,0.0,0.0
0.9018036072144289,-1.1112565914407622,4.094086017899326,1.582308970238867,3.8401226649791274,9.999999999999995,0.0,0.0
0.9218436873747494,-1.025467296156988,4.28946476418871,1.6650547975482255,4.1372913654679175,9.999999999999977,0.0,0.0
0.9418837675350701,-0.935704370692997,4.488146273199548,1.7542115073836824,4.457835491772838,8.729921311632184,0.0,0.0
0.9619238476953907,-0.8423556466136045,4.667436203969624,1.850126378202731,4.795743540952439,6.085314176953505,0.0,0.0
0.9819639278557114,-0.7463073496662642,4.802414847367013,1.9528055705309173,5.133959616409308,3.5295333589697067,0.0,0.0
1.002004008016032,-0.648421102251205,4.8943123707529645,2.0619646100999383,5.457951978451058,1.0822145171619462,0.0,0.0
1.0220440881763526,-0.5495375223965115,4.9441789927346695,2.1770104484356754,5.752291916786851,-1.243977728990398,0.0,0.0
1.0420841683366733,-0.45048303494641445,4.952724372504855,2.2970314901649576,6.001052086464118,-3.8833593702862026,0.0,0.0
1.062124248496994,-0.35224296857139287,4.912003318751079,2.4206354136206167,6.180196172782957,-6.749901457168654,0.0,0.0
1.0821643286573146,-0.25594107617869233,4.815094619635025,2.5459358290322776,6.26502077058303,-9.042993673046235,0.0,0.0
1.1022044088176353,-0.16253846991285248,4.670130313291993,2.670935464292937,6.249981763032969,-9.999999999988171,0.0,0.0
1.122244488977956,-0.07252568771961047,4.5006391096621,2.7940708056739223,6.156767069049268,-9.999999999942311,0.0,0.0
1.1422845691382766,0.01395842665890068,4.324205718925557,2.9142339656389633,6.008157998252041,-10.0,0.0,0.0
1.1623246492985972,0.09677560701300301,4.140859017705116,3.0303661771136206,5.806610573732858,-9.999999999997788,0.0,0.0
1.1823647294589177,0.17579858453961344,3.9511488763305205,3.1414980418002925,5.556593234333591,-9.999999999999108,0.0,0.0
1.2024048096192383,0.2509193855057796,3.756040048308307,3.246780853647841,5.264140592377437,-9.999999999999982,0.0,0.0
1.222444889779559,0.3220544412445392,3.556752786937979,3.345504825160415,4.9361985756286995,-10.0,0.0,0.0
1.2424849699398797,0.3891462458411661,3.3545902298313437,3.4371033147064174,4.5799244773001195,-10.0,0.0,0.0
1.2625250501002003,0.45216202069336164,3.1507887426097767,3.5211450816552743,4.202088347442852,-10.0,0.0,0.0
1.282565130260521,0.5110902750177698,2.946412716220408,3.5973182773598027,3.808659785226427,-10.0,0.0,0.0
1.3026052104208417,0.5659362459096329,2.742298544593155,3.6654101735125164,3.404594807635679,-9.999999999999998,0.0,0.0
1.3226452905811623,0.6167170533448961,2.539040371763161,3.725285955724499,2.993789110599137,-10.0,0.0,0.0
1.342685370741483,0.6634571493078679,2.337004798148589,3.7768688430477133,2.57914436616072,-10.0,0.0,0.0
1.3627254509018036,0.7061843833967509,2.1363617044441505,3.820122768935614,2.162696294395032,-10.0,0.0,0.0
1.3827655310621243,0.7449268064044128,1.937121150383092,3.855038087945404,1.745765950489499,-9.999999999999996,0.0,0.0
1.4028056112224447,0.7797102029996833,1.7391698297635272,3.8816202933181687,1.3291102686382341,-9.999999999999998,0.0,0.0
1.4228456913827654,0.8105562758510851,1.542303642570091,3.8998814917710414,0.9130599226436271,-9.999999999999998,0.0,0.0
1.442885771543086,0.8374813795013009,1.3462551825107876,3.909834307172086,0.49764077005223134,-9.99999999988897,0.0,0.0
1.4629258517034067,0.8604957068971104,1.1507163697904796,3.911487907291573,0.0826800059743592,-9.999999999999998,0.0,0.0
1.4829659318637274,0.8796028525457861,0.9553572824337839,3.9048459206123343,-0.3320993339619368,-9.999999999993179,0.0,0.0
1.503006012024048,0.8947997058242791,0.7598426639246518,3.8899061051782806,-0.7469907717026869,-9.999999999960636,0.0,0.0
1.5230460921843687,0.9060766611836825,0.563847767970166,3.866661734007829,-1.1622185585225817,-9.999999999965773,0.0,0.0
1.5430861723446894,0.9134181658673117,0.36707523418146565,3.835104764381855,-1.5778484812986848,-9.999999999813571,0.0,0.0
1.56312625250501,0.9168036577962803,0.16927459644842593,3.795230955719503,-1.993690433117583,-9.999999999999996,0.0,0.0
1.5831663326653307,0.9162089732119439,-0.029734229216814068,3.7470471835205745,-2.4091886099464404,-9.999999999999996,0.0,0.0
1.6032064128256511,0.9116083202134274,-0.23003264992582476,3.6905812465687116,-2.8232968475931437,-9.999999999999996,0.0,0.0
1.6232464929859718,0.9029769119730041,-0.4315704120211646,3.625894448168427,-3.234339920014232,-9.999999998070292,0.0,0.0
1.6432865731462925,0.8902943196911368,-0.6341296140933674,3.5530970980746193,-3.639867504690382,-9.999999993893654,0.0,0.0
1.6633266533066131,0.8735485245831112,-0.8372897554012844,3.472366762342391,-4.03651678661142,-9.999999997218557,0.0,0.0
1.6833667334669338,0.8527405054807801,-1.0404009551165554,3.38396851680682,-4.4199122767785495,-9.99999999487392,0.0,0.0
1.7034068136272544,0.8278889892902389,-1.2425758095270567,3.288275611838442,-4.784645248418892,-9.999999984880901,0.0,0.0
1.723446893787575,0.7990347365144607,-1.44271263878891,3.185787918610135,-5.124384661415362,-9.999999981202132,0.0,0.0
1.7434869739478958,0.7662434972541393,-1.639561963016065,3.0771445757822646,-5.432167141393527,-9.999999999999996,0.0,0.0
1.7635270541082164,0.729606665934753,-1.831841565969315,2.9631268717705583,-5.7008852005853115,-9.999999999999996,0.0,0.0
1.783567134268537,0.6892388157477459,-2.0183925093503543,2.844648133317221,-5.923936922666868,-9.999999999996323,0.0,0.0
1.8036072144288577,0.6452717824103652,-2.1983516668690344,2.7227295344562847,-6.095929943046829,-9.99999999999977,0.0,0.0
1.8236472945891782,0.5978457247968175,-2.371302880677385,2.5984639310875908,-6.213280168434699,-9.999999999999998,0.0,0.0
1.8436873747494988,0.5470983775619991,-2.537367361740923,2.472972963923828,-6.274548358188155,-9.999999999999996,0.0,0.0
1.8637274549098195,0.49315420969110824,-2.697208393544543,2.3473643901374883,-6.280428689316967,-9.999999999917062,0.0,0.0
1.8837675350701402,0.43611519862093573,-2.851950553508625,2.2226961038171087,-6.233414316018975,-9.999999999962203,0.0,0.0
1.9038076152304608,0.3760544472940358,-3.0030375663449957,2.099950895246058,-6.137260428552534,-9.999999992263637,0.0,0.0
1.9238476953907815,0.31301314761610755,-3.152064983896413,1.9800228549554784,-5.996402014528977,-8.183014945626827,0.0,0.0
1.9438877755511021,0.24766864344052877,-3.267225208778939,1.864112118498357,-5.795536822856073,-4.386640008799866,0.0,0.0
1.9639278557114228,0.18138217418904903,-3.314323462573987,1.7534184665228243,-5.534682598776628,0.7159236882768889,0.0,0.0
1.9839679358717435,0.11595336703270588,-3.271440357817158,1.6487369160890126,-5.2340775216905815,7.144213825240734,0.0,0.0
2.004008016032064,0.05364106646193483,-3.1156150285385524,1.5502776108288396,-4.922965263008652,9.999999999999998,0.0,0.0
2.024048096192385,-0.00459967853521559,-2.912037249857521,1.4575681683103903,-4.635472125922474,9.999999999999796,0.0,0.0
2.0440881763527052,-0.058842386283256526,-2.712135387402047,1.3700202618939077,-4.377395320824134,9.999999999953634,0.0,0.0
2.064128256513026,-0.109148867760589,-2.515324073866624,1.2870538735733486,-4.1483194160279595,9.999999984881809,0.0,0.0
2.0841683366733466,-0.1555696494895792,-2.3210390864495087,1.2080981587649062,-3.947785740422119,9.999999999964134,0.0,0.0
2.1042084168336674,-0.19814475559437386,-2.128755305239734,1.1325910950138915,-3.7753531875507327,7.681992182699492,0.0,0.0
2.124248496993988,-0.2377580378145328,-1.9806641110079466,1.0605211900114444,-3.603495250122353,4.750465959867463,0.0,0.0
2.1442885771543083,-0.2755216335243263,-1.8881797854896734,0.9922247458488858,-3.414822208127929,2.2038827322620294,0.0,0.0
2.164328657314629,-0.3124107779068559,-1.8444572191264812,0.9281314105768591,-3.2046667636013333,0.16522049394628757,0.0,0.0
2.1843687374749496,-0.3492164738980713,-1.840284799560771,0.868667110808918,-2.973214988397056,-1.3944363910862163,0.0,0.0
2.2044088176352705,-0.38655332900939854,-1.86684275556636,0.8142034515291945,-2.723182963986173,-2.5454030342196177,0.0,0.0
2.224448897795591,-0.4248829455155274,-1.916480825306445,0.7650345141850148,-2.4584468672089828,-3.3543882566726726,0.0,0.0
2.244488977955912,-0.46453662290560227,-1.9826838695037443,0.7213670861161318,-2.1833714034441534,-3.8750661936218544,0.0,0.0
2.2645290581162323,-0.5057339413241627,-2.0598659209280243,0.683318056547335,-1.9024514784398376,-4.148575063197455,0.0,0.0
2.284569138276553,-0.5485973347425193,-2.143169670917825,0.6509159677571066,-1.620104439511422,-4.206469364364746,0.0,0.0
2.3046092184368736,-0.5931636227929791,-2.228314402522993,0.624105220007685,-1.3405373874710809,-4.07347863160307,0.0,0.0
2.3246492985971945,-0.6393933872389349,-2.311488222297791,0.6027519976958373,-1.0676611155923852,-3.7695143057289866,0.0,0.0
2.344689378757515,-0.6871788093222061,-2.3892711041635617,0.5866512093370136,-0.8050394179411837,-3.3110137546314675,0.0,0.0
2.3647294589178354,-0.7363503597246277,-2.4585775201210813,0.5755338785934848,-0.555866537176443,-2.711841085199166,0.0,0.0
2.3847695390781563,-0.786682595681775,-2.5166117978573657,0.5690745709696701,-0.32296538119073626,-1.9839356206821823,0.0,0.0
2.4048096192384767,-0.8378992535368633,-2.560832892754418,0.5668985956462465,-0.10879876617118209,-1.1378396721897142,0.0,0.0
2.4248496993987976,-0.8896778034418426,-2.5889274952489627,0.5685888653780152,0.08451348658843999,-0.1831851090557436,0.0,0.0
2.444889779559118,-0.9416536342169922,-2.598791538757484,0.5736924109820702,0.2551772802027503,0.8708188752466247,0.0,0.0
2.464929859719439,-0.9934240461523555,-2.588520596768163,0.5817266207683501,0.4017104893139931,2.0148764702250657,0.0,0.0
2.4849699398797593,-1.0445522403515357,-2.556409709959011,0.5921853094129719,0.5229344322310863,3.2390626202801185,0.0,0.0
2.50501002004008,-1.0945715036205683,-2.500963163451631,0.6045447243306434,0.6179707458835788,4.532232233737005,0.0,0.0
2.5250501002004007,-1.1429898011960489,-2.4209148787740284,0.6182695865536705,0.6862431111513533,5.881355400248948,0.0,0.0
2.5450901803607215,-1.1892950121242745,-2.3152605464112743,0.632819257299135,0.7274835372732259,7.2707418538327335,0.0,0.0
2.565130260521042,-1.232961079858485,-2.183303386710523,0.6476541395243045,0.7417441112584745,8.681124348147991,0.0,0.0
2.5851703406813624,-1.2734554025778546,-2.0247161359684847,0.6622424751069371,0.7294167791316314,9.999999999967136,0.0,0.0
2.6052104208416833,-1.3102814875301365,-1.8413042476140935,0.6761075544842948,0.6932539688678866,9.999999999999973,0.0,0.0
2.6252505010020037,-1.343444243748944,-1.6581378109403764,0.6893663175172852,0.6629381516495167,10.0,0.0,0.0
2.6452905811623246,-1.3729482026866846,-1.4751979468870249,0.7021303917911151,0.6382037136914976,9.999999999988212,0.0,0.0
2.665330661322645,-1.3987975701032604,-1.2924683708287896,0.7145070349482845,0.6188321578584661,10.0,0.0,0.0
2.685370741482966,-1.42099627217733,-1.1099351037034706,0.7266000381731073,0.6046501612411356,9.999999999999288,0.0,0.0
2.7054108216432864,-1.4395479961522126,-0.9275861987441314,0.7385105970205228,0.5955279423707799,10.0,0.0,0.0
2.7254509018036073,-1.454456225784136,-0.7454114815961747,0.7503381557761527,0.5913779377814932,9.999999999998423,0.0,0.0
2.7454909819639277,-1.4657242717855739,-0.5634023000718915,0.7621812314291248,0.5921537826486021,10.0,0.0,0.0
2.7655310621242486,-1.4733552973565684,-0.3815512785497274,0.7741382231651386,0.5978495868006907,10.0,0.0,0.0
2.785571142284569,-1.4773523387750433,-0.19985207092374427,0.7863082130633172,0.6084994949089343,10.0,0.0,0.0
2.8056112224448895,-1.4777183208733367,-0.018299104914669934,0.798791763415336,0.6241775176009371,10.0,0.0,0.0
2.8256513026052104,-1.474456067060849,0.16311269062438213,0.8116917157803926,0.6449976182528275,10.0,0.0,0.0
2.845691382765531,-1.4675683033583837,0.34438818512326874,0.825113996539724,0.671114037966571,10.0,0.0,0.0
2.8657314629258517,-1.4570576556837116,0.525532383733603,0.8391684333092746,0.7027218384775312,10.0,0.0,0.0
2.885771543086172,-1.4429266393641296,0.7065508159791056,0.8539695860937995,0.7400576392262437,9.999999999999943,0.0,0.0
2.905811623246493,-1.4251776395433173,0.8874499910406066,0.8696375965009978,0.783400520359916,10.0,0.0,0.0
2.9258517034068134,-1.4038128807889263,1.068237937719549,0.8862990576573728,0.8330730578187482,10.0,0.0,0.0
2.9458917835671343,-1.3788343837860135,1.2489248501456354,0.9040879066524964,0.8894424497561769,9.999999999843357,0.0,0.0
2.9659318637274548,-1.350243906512111,1.4295238636951202,0.9231463403571954,0.9529216852349535,10.0,0.0,0.0
2.9859719438877756,-1.3180428667257371,1.6100519893186978,0.943625754284536,1.0239706963670285,1.6518796154466546,0.0,0.0
3.006012024048096,-1.2853408728401245,1.6350996942806273,0.9684224722464355,1.2398358980949766,9.99999999999834,0.0,0.0
3.0260521042084165,-1.2490251394404768,1.8157866699823844,0.99499184282594,1.3284685289752252,1.154898622110652,0.0,0.0
3.0460921843687374,-1.2123778200898125,1.8323659675332153,1.0262193510080417,1.5613754091050844,10.0,0.0,0.0
3.066132264529058,-1.172108343154467,2.013473846767277,1.0596601910222343,1.6720420007096288,2.313443351714943,0.0,0.0
3.0861723446893787,-1.1310544498367987,2.0526946658834193,1.0976510927205891,1.8995450849177369,9.999999999999998,0.0,0.0
3.106212424849699,-1.0863626670707105,2.2345891383044116,1.138387683198883,2.036829523914691,4.964530956171964,0.0,0.0
3.12625250501002,-1.0398772810288255,2.3242693020942453,1.1833330039625798,2.2472660381848413,9.999999999995424,0.0,0.0
3.1462925851703405,-0.9897283196767734,2.507448067602602,1.231643966299219,2.4155481168319595,8.798993906997941,0.0,0.0
3.1663326653306614,-0.936339042064884,2.669463880594469,1.2838805119222478,2.6118272811514425,9.9999999997443,0.0,0.0
3.186372745490982,-0.8792467333206873,2.8546154372098402,1.3401822381911879,2.8150863134469986,9.999999999999991,0.0,0.0
3.2064128256513023,-0.8184239465738353,3.041139337342598,1.4009264787802873,3.0372120294549707,9.999999999999996,0.0,0.0
3.226452905811623,-0.7538366637249536,3.2293641424440858,1.4665084585453274,3.279098988252008,9.99999999998412,0.0,0.0
3.2464929859719436,-0.6854434236316043,3.4196620046674675,1.5373409162805862,3.5416228867629407,9.999999999999993,0.0,0.0
3.2665330661322645,-0.6131945268093573,3.6124448411123518,1.6138530810924088,3.82560824059113,9.999999999999986,0.0,0.0
3.286573146292585,-0.5370314363533795,3.8081545227988873,1.696488689782229,4.131780434491013,9.459069177303254,0.0,0.0
3.306613226452906,-0.4570834664449026,3.997398495423842,1.78566554169895,4.458842595836046,7.655140282394877,0.0,0.0
