time,x,x_dot,theta,theta_dot,u,x_ref,theta_ref
0.0,-0.6789246533227384,-0.018964536872171228,0.029895127730876825,0.001279953454029606,-3.2079291097772273,0.0,0.0
0.02004008016032064,-0.6805642432309315,-0.0819794954096498,0.0319847979785926,0.10448351238578867,-2.8492854563582974,0.0,0.0
0.04008016032064128,-0.6833247697392159,-0.1380263254142199,0.035941884549863114,0.19785432856352578,-2.470195974202874,0.0,0.0
0.06012024048096192,-0.6870594050925825,-0.18673176766833205,0.041569439450651564,0.2813777450394226,-2.0684569597182327,0.0,0.0
0.08016032064128256,-0.6916129402799318,-0.22767675936746548,0.048667721659200504,0.35491411042744697,-1.6481949722932194,0.0,0.0
0.1002004008016032,-0.6968233388253885,-0.2605199272728348,0.05703539215903364,0.41838352499165654,-1.2126482136654246,0.0,0.0
0.12024048096192384,-0.7025229464065614,-0.28498037905864815,0.06647020232078646,0.4717405080876407,-0.7650600544907065,0.0,0.0
0.1402805611222445,-0.7085397063982102,-0.3008379995824379,0.0767697071404442,0.5149752409828876,-0.30875649974691544,0.0,0.0
0.16032064128256512,-0.7146984120094768,-0.30793528056333097,0.08773205160468556,0.5481172232120679,0.15281555784067374,0.0,0.0
0.18036072144288576,-0.7208220095183471,-0.3061798754435116,0.09915685037686003,0.5712399386087239,0.6160589117256103,0.0,0.0
0.2004008016032064,-0.7267329629679404,-0.295547672479666,0.1108461718292817,0.5844660726210837,1.0772078146539805,0.0,0.0
0.22044088176352705,-0.7322546858280166,-0.27608614300380485,0.12260562830854661,0.5879728239632456,1.5323243456016775,0.0,0.0
0.24048096192384769,-0.7372130391709807,-0.24791766714820632,0.13424556503374718,0.5819968362600287,1.977312178129265,0.0,0.0
0.2605210420841683,-0.7414378891115572,-0.21124249702882206,0.14558233067356857,0.5668382819910694,2.407949660157155,0.0,0.0
0.280561122244489,-0.7447647089653247,-0.1663409926883749,0.1564396039677899,0.5428636647110663,2.8199429167816463,0.0,0.0
0.3006012024048096,-0.747036204242311,-0.11357476384931775,0.16664974330903184,0.5105069670620983,3.208998174640857,0.0,0.0
0.32064128256513025,-0.7481039317560795,-0.05338637568842227,0.17605512053897215,0.4702688614970157,3.5709107251133694,0.0,0.0
0.3406813627254509,-0.7478298784261949,0.013702666494228237,0.18450939686744808,0.4227138164237964,3.90166603111713,0.0,0.0
0.3607214428857715,-0.7460879614454351,0.08709584903798659,0.19187869824038284,0.36846506864673845,4.197546671315873,0.0,0.0
0.3807615230460922,-0.7427654099857943,0.16612757298203767,0.198042649958618,0.3081975859117584,4.455237414481791,0.0,0.0
0.4008016032064128,-0.7377639899839592,0.25007100009175437,0.202895235942279,0.2426292991830502,4.67192004240705,0.0,0.0
0.42084168336673344,-0.7310010379630149,0.33814760104721947,0.20634545649150768,0.1725110274614336,4.845349842351464,0.0,0.0
0.4408817635270541,-0.7224102771429186,0.42953804100481385,0.20831776911304362,0.09861563107679688,4.973907057795169,0.0,0.0
0.4609218436873747,-0.7119423987163837,0.5233939213267453,0.20875230904138184,0.021726996416910796,5.056618901024942,0.0,0.0
0.48096192384769537,-0.6995654022346993,0.6188498240842153,0.2076048983390403,-0.0573705351170766,5.093150670370738,0.0,0.0
0.501002004008016,-0.6852647004638248,0.7150350885437271,0.20484686370395697,-0.13790173175416653,5.0837676223322195,0.0,0.0
0.5210420841683366,-0.6690430046962169,0.8110847883803954,0.20046469224984323,-0.2191085727056862,5.029272042478033,0.0,0.0
0.5410821643286573,-0.6509200153321625,0.9061494682027195,0.19445956073953452,-0.30025657551543594,4.930922043003043,0.0,0.0
0.561122244488978,-0.6309319488435645,0.9994033244298955,0.1868467766023453,-0.38063920685946134,4.790339763270486,0.0,0.0
0.5811623246492986,-0.6091309356221276,1.090050661071848,0.1776551685177991,-0.45958040422730967,4.609416826578408,0.0,0.0
0.6012024048096192,-0.585584323670586,1.1773305975770811,0.16692646072208223,-0.5364353897858439,4.390224246008479,0.0,0.0
0.6212424849699398,-0.5603739209029703,1.260520138380783,0.1547146590751167,-0.6105900823482765,4.134932715288853,0.0,0.0
0.6412825651302605,-0.5335952044747273,1.3389358214121512,0.1410854690476415,-0.6814595013737605,3.8457476423563257,0.0,0.0
0.6613226452905812,-0.5053565196745602,1.4119342400083552,0.12611575692221189,-0.7484856062714811,3.524861636413552,0.0,0.0
0.6813627254509018,-0.47577828410571776,1.4789117784421202,0.10989305638140745,-0.8111350270402218,3.174425632064705,0.0,0.0
0.7014028056112224,-0.44499220574588816,1.5393039179914791,0.09251511392294798,-0.8688971229229735,2.796538538862003,0.0,0.0
0.721442885771543,-0.4131405164950829,1.5925844625402639,0.07408945872818229,-0.921282759738284,2.3932542837132615,0.0,0.0
0.7414829659318637,-0.38037521639081545,1.638265005213371,0.05473297614264951,-0.9678241292766389,1.9666043544131435,0.0,0.0
0.7615230460921844,-0.3468573180822582,1.6758949154278617,0.03457145913275087,-1.008075850494932,1.5186334123134668,0.0,0.0
0.781563126252505,-0.3127560766183478,1.7050620731955195,0.013739109200096883,-1.0416174966326994,1.0514451636280377,0.0,0.0
0.8016032064128256,-0.2782481862610652,1.7253945178641308,-0.007622042581577351,-1.0680575890837116,0.5672554072684013,0.0,0.0
0.8216432865731462,-0.24351692397637498,1.73656311423451,-0.029362822430615013,-1.087038992451883,0.06844896586226323,0.0,0.0
0.8416833667334669,-0.20875121853719117,1.7382852719591906,-0.051327733246488205,-1.0982455407936598,-0.4423629767189027,0.0,0.0
0.8617234468937875,-0.17414462482409285,1.730329685654916,-0.07335592581099439,-1.1014096282253087,-0.9622887851482835,0.0,0.0
0.8817635270541082,-0.1398941849405259,1.7125219941783472,-0.09528233408186372,-1.0963204135434665,-1.488109362492043,0.0,0.0
0.9018036072144289,-0.10619916116741168,1.6847511886557118,-0.11693897854898039,-1.0828322233558332,-2.0162422276077208,0.0,0.0
0.9218436873747494,-0.07325963055642021,1.6469765305495736,-0.13815643245090753,-1.0608726950963572,-2.5427208321775447,0.0,0.0
0.9418837675350701,-0.04127493708143681,1.5992346737491698,-0.15876543608674573,-1.0304501817919096,-3.063193325093014,0.0,0.0
0.9619238476953907,-0.010442004693013499,1.5416466194211658,-0.1785986349674473,-0.9916599440350781,-3.5729448372469204,0.0,0.0
0.9819639278557114,0.019046476738645336,1.4744240715829418,-0.1974924085535184,-0.9446886793035556,-4.066946880425798,0.0,0.0
1.002004008016032,0.04700397093851243,1.3978747099933546,-0.21528874820429775,-0.8898169825389665,-4.539936435844331,0.0,0.0
1.0220440881763526,0.07325208820599292,1.312405863374025,-0.23183713609276635,-0.8274193944234297,-4.986525553425962,0.0,0.0
1.0420841683366733,0.09762260945210419,1.2185260623055634,-0.24699637164804042,-0.7579617777637035,-5.401339672080842,0.0,0.0
1.062124248496994,0.11995948929306154,1.1168439920478672,-0.26063628911481124,-0.6819958733385422,-5.77917946413912,0.0,0.0
1.0821643286573146,0.14012077859325686,1.0080644650097659,-0.2726393097255048,-0.60015103053468,-6.11519714428889,0.0,0.0
1.1022044088176353,0.15798040256994797,0.8929811988345554,-0.2829017754691419,-0.5131232871818554,-6.405074518063783,0.0,0.0
1.122244488977956,0.17342973088282765,0.7724664156439837,-0.2913350190713647,-0.4216621801111401,-6.645187455069724,0.0,0.0
1.1422845691382766,0.1863788819149807,0.6474575516076522,-0.2978661367374468,-0.32655588330410323,-6.832740834687168,0.0,0.0
1.1623246492985972,0.19675771488456342,0.5189416484791365,-0.3024384459832375,-0.22861546228953625,-6.965859891627889,0.0,0.0
1.1823647294589177,0.20451647977798537,0.3879382446710974,-0.30501162926741066,-0.1286591642086577,-7.043628247942224,0.0,0.0
1.2024048096192383,0.20962611474461626,0.2554817483315447,-0.30556158327984645,-0.027497700621788454,-7.066069076328115,0.0,0.0
1.222444889779559,0.21207820128228447,0.1226043268834103,-0.30408001144093927,0.07407859194535872,-7.034072613060157,0.0,0.0
1.2424849699398797,0.21188460681273957,-0.009679723477244523,-0.30057381133620237,0.17531000523684553,-6.949279305841949,0.0,0.0
1.2625250501002003,0.20907685991781716,-0.14038734474612058,-0.2950643178846513,0.2754746725775512,-6.813932139798512,0.0,0.0
1.282565130260521,0.2037053140794203,-0.2685772919198435,-0.28758646626324713,0.3738925810702084,-6.630713591410842,0.0,0.0
1.3026052104208417,0.19583816060571435,-0.3933576736852971,-0.27818793608896014,0.46992650871435,-6.402582264033029,0.0,0.0
1.3226452905811623,0.18556035073723406,-0.5138904934240138,-0.26692833091176366,0.5629802588598238,-6.132622057373706,0.0,0.0
1.342685370741483,0.17297248156447356,-0.6293934586380251,-0.25387843596147286,0.6524947475145406,-5.823913461493651,0.0,0.0
1.3627254509018036,0.15818969158088947,-0.739139499179204,-0.23911958373825537,0.737942611160874,-5.479432988789577,0.0,0.0
1.3827655310621243,0.14134060077146834,-0.8424545404710563,-0.2227431427744968,0.8188220481879275,-5.101983451648468,0.0,0.0
1.4028056112224447,0.1225663183174551,-0.9387141227006627,-0.20485013082533488,0.8946505974580964,-4.6941551125996135,0.0,0.0
1.4228456913827654,0.10201952927033107,-1.0273394523562012,-0.18555094068513434,0.9649595070100266,-4.2583158087590265,0.0,0.0
1.442885771543086,0.07986366062576032,-1.1077934322285377,-0.16496515533772485,1.0292892673704737,-3.7966269405822337,0.0,0.0
1.4629258517034067,0.056272117569118485,-1.1795771528320917,-0.14322141959853896,1.0871867869592953,-3.3110815746130786,0.0,0.0
1.4829659318637274,0.031427572524971914,-1.2422272522073283,-0.1204573280507529,1.138204577389303,-2.8035606596004143,0.0,0.0
1.503006012024048,0.0055212831434019415,-1.2953144690784986,-0.09681928411570745,1.1819021967522727,-2.275903322789523,0.0,0.0
1.5230460921843687,-0.02124758946204343,-1.3384436302722684,-0.07246228270944527,1.217850070313109,-1.7299872596225958,0.0,0.0
1.5430861723446894,-0.04867269404003122,-1.3712552288993896,-0.04754956927846721,1.245635671548903,-1.167815260819779,0.0,0.0
1.56312625250501,-0.07654126735041755,-1.3934286655193169,-0.022252131181117178,1.2648719048675015,-0.5916038822942733,0.0,0.0
1.5831663326653307,-0.10463501015573264,-1.4046871402657541,0.0032520166140964403,1.2752073897606808,-0.0038701320893942404,0.0,0.0
1.6032064128256511,-0.13273109214637563,-1.40480409953215,0.0287787808574548,1.2763382121679179,0.592488177387461,0.0,0.0
1.6232464929859718,-0.1606033132704975,-1.3936110562060935,0.05413919268992929,1.2680205916237246,1.1941230749767597,0.0,0.0
1.6432865731462925,-0.18802344362021545,-1.3710065174858963,0.07914086911864439,1.250083821435755,1.7971831133557687,0.0,0.0
1.6633266533066131,-0.21476275699529743,-1.3369656687540985,0.10358972473354577,1.222442780745069,2.3972815223831323,0.0,0.0
1.6833667334669338,-0.2405937645070796,-1.2915503755891073,0.12729191063899975,1.185109295272698,2.9894915875069135,0.0,0.0
1.7034068136272544,-0.26529214409231666,-1.2349189792618542,0.15005594338072364,1.1382016370861947,3.5683750817732824,0.0,0.0
1.723446893787575,-0.2886388496265259,-1.1673352767104639,0.17169497336070175,1.0819514989989052,4.128049131696758,0.0,0.0
1.7434869739478958,-0.3104223696491807,-1.0891760011327396,0.19202913040472344,1.0167078522010848,4.662295558075201,0.0,0.0
1.7635270541082164,-0.3304410910016429,-1.0009360676231105,0.21088787432039546,0.9429371957836012,5.164714114246912,0.0,0.0
1.783567134268537,-0.3485057078160351,-0.9032308407196139,0.22811227111057497,0.8612198395089761,5.62891689647833,0.0,0.0
1.8036072144288577,-0.36444160268706705,-0.7967947435515947,0.24355711186777815,0.7722420378601592,6.048755632413771,0.0,0.0
1.8236472945891782,-0.3780911164184213,-0.682475686567714,0.25709279238889704,0.6767840260559432,6.418567232749836,0.0,0.0
1.8436873747494988,-0.3893156176417861,-0.5612250611682408,0.2686068783983422,0.5757043004722576,6.7334171865120815,0.0,0.0
1.8637274549098195,-0.3979972858596616,-0.4340834108937748,0.2780052948130668,0.4699208207362293,6.989316733353187,0.0,0.0
1.8837675350701402,-0.4040405322865568,-0.3021623213447586,0.2852130977733179,0.3603901480125546,7.1833897903768476,0.0,0.0
1.9038076152304608,-0.4073730021485105,-0.1666234930976855,0.2901748140156572,0.248085812116965,7.313970113772849,0.0,0.0
1.9238476953907815,-0.4079461281320776,-0.028656299178354078,0.29285436106245655,0.13397735233996866,7.380617544851886,0.0,0.0
1.9438877755511021,-0.4057352343560438,0.11054468880169036,0.29323459021022596,0.01901145738847078,7.384052772259857,0.0,0.0
1.9639278557114228,-0.4007392197108811,0.24980073225813382,0.29131651877575204,-0.09590357172369712,7.326020606940098,0.0,0.0
1.9839679358717435,-0.3929798748602864,0.3879672425297343,0.28711833543100734,-0.2099091672372359,7.2091000781058945,0.0,0.0
2.004008016032064,-0.3825009056738214,0.5239484593232501,0.2806742708820393,-0.3222032274484034,7.036484137138319,0.0,0.0
2.024048096192385,-0.36936674583219564,0.6567079920812886,0.27203342536218644,-0.43204227599264067,6.811752240408883,0.0,0.0
2.0440881763527052,-0.3536612427498347,0.7852751541180475,0.26125863549673983,-0.5387394932723295,6.538656247021469,0.0,0.0
2.064128256513026,-0.33548629492124715,0.9087473914293753,0.2484254480257371,-0.6416593735501367,6.220935124485186,0.0,0.0
2.0841683366733466,-0.3149605071896664,1.0262893865790383,0.2336212489770996,-0.7402099524318748,5.862168267576303,0.0,0.0
2.1042084168336674,-0.29221791537307634,1.1371295908295034,0.21694457638004208,-0.833833629852876,5.465671911213318,0.0,0.0
2.124248496993988,-0.26740681512307446,1.240555012500095,0.19850462429566723,-0.9219976042187431,5.034438832457086,0.0,0.0
2.1442885771543083,-0.24068871340366724,1.3359050859703614,0.17842092709140936,-1.0041848602128935,4.57111854663041,0.0,0.0
2.164328657314629,-0.21223740565402188,1.4225653874822672,0.15682319629255786,-1.079886539942575,4.078033438606341,0.0,0.0
2.1843687374749496,-0.1822381681968141,1.4999618728603898,0.13385126845433393,-1.1485963919111966,3.5572254726911785,0.0,0.0
2.2044088176352705,-0.15088704408941697,1.5675562053698562,0.1096551115680176,-1.2098078443158162,3.010527968774105,0.0,0.0
2.224448897795591,-0.11839019148665979,1.6248426301378591,0.08439482973972627,-1.2630140914145667,2.4396571127751785,0.0,0.0
2.244488977955912,-0.08496325667590508,1.6713467405377354,0.05824060147129821,-1.3077114134214027,1.8463181488908802,0.0,0.0
2.2645290581162323,-0.05083072920491067,1.7066263735497207,0.031372486065508104,-1.3434057702895055,1.2323214267451958,0.0,0.0
2.284569138276553,-0.01622523390104181,1.730274765193443,0.003980035683280366,-1.3696225191113869,0.5997035656824998,0.0,0.0
2.3046092184368736,0.018613285955020223,1.7419259928031015,-0.023738342505878043,-1.3859189094579205,-0.049151074818457485,0.0,0.0
2.3246492985971945,0.05343853850628118,1.7412626275630476,-0.05157631894092303,-1.3918988217522492,-0.7113936727606325,0.0,0.0
2.344689378757515,0.08799904686591128,1.7280254179815053,-0.07932089984968771,-1.3872290454382337,-1.3836044392816662,0.0,0.0
2.3647294589178354,0.12203954131288318,1.7020247223485947,-0.10675402508732762,-1.3716562618819952,-2.0617024115643297,0.0,0.0
2.3847695390781563,0.1553026073948496,1.6631533040983209,-0.1336545013660623,-1.3450238139367345,-2.740878445813691,0.0,0.0
2.4048096192384767,0.18753060729635185,1.6113999950751128,-0.15980024766485687,-1.307287314939729,-3.415559336468961,0.0,0.0
2.4248496993987976,0.21846787956164543,1.5468636132646787,-0.18497081106435168,-1.2585281699747397,-4.079412075634831,0.0,0.0
2.444889779559118,0.2478632073541022,1.4697663896228388,-0.20895009383288332,-1.198964138426583,-4.725398062989031,0.0,0.0
2.464929859719439,0.2754725276440426,1.38046601449702,-0.23152921669452803,-1.1289561430822348,-5.34588691596909,0.0,0.0
2.4849699398797593,0.3010618330594726,1.2794652707714993,-0.25250942904639545,-1.0490106175933704,-5.932837444737764,0.0,0.0
2.50501002004008,0.3244101952500156,1.1674181095271485,-0.27170496480992695,-0.9597767881765742,-6.478048309363857,0.0,0.0
2.5250501002004007,0.3453128151755613,1.0451309962772852,-0.28894573353822905,-0.8620384364151052,-6.97347318571309,0.0,0.0
2.5450901803607215,0.36358398433899025,0.9135584581714478,-0.30407973169437474,-0.7566999078072858,-7.411579523472358,0.0,0.0
2.565130260521042,0.37905982730424276,0.7737921482626255,-0.31697506360146277,-0.6447665953544025,-7.785726519089058,0.0,0.0
2.5851703406813624,0.3916006907770169,0.6270431736387094,-0.32752147308429547,-0.5273204741416356,-8.09051514864134,0.0,0.0
2.6052104208416833,0.40109305655136895,0.4746182887176019,-0.33563131405010943,-0.40549204829069696,-8.322070028193835,0.0,0.0
2.6252505010020037,0.40745088184601413,0.31789126473225965,-0.34123992464809116,-0.280430529899088,-8.47821283795835,0.0,0.0
2.6452905811623246,0.41061631099738677,0.15827145756863284,-0.3443054146948381,-0.15327450233734619,-8.558502942166172,0.0,0.0
2.665330661322645,0.41055975122495486,-0.002827988621594113,-0.3448079228550233,-0.025125408009259498,-8.564144033794108,0.0,0.0
2.685370741482966,0.40727935368148993,-0.1640198771732476,-0.34274843989142945,0.10297414817969378,-8.49776572856139,0.0,0.0
2.7054108216432864,0.4007999858492546,-0.32396839161176616,-0.33814732676787007,0.23005565617796786,-8.363126787791192,0.0,0.0
2.7254509018036073,0.3911718084141919,-0.48140887175313307,-0.33104266602451105,0.3552330371679516,-8.16476698692584,0.0,0.0
2.7454909819639277,0.3784685870083,-0.635161070294597,-0.3214885863129621,0.4777039855774453,-7.907656815598086,0.0,0.0
2.7655310621242486,0.36278586825401343,-0.7841359377143271,-0.3095536833404081,0.5967451486276995,-7.596875743619126,0.0,0.0
2.785571142284569,0.34423913751454277,-0.927336536973533,-0.2953196360435925,0.7117023648407811,-7.2373428775885476,0.0,0.0
2.8056112224448895,0.3229620551913293,-1.063854116160674,-0.27888008712239015,0.8219774460601171,-6.8336124786996,0.0,0.0
2.8256513026052104,0.2991048435033433,-1.1928605843992988,-0.260339826201276,0.9270130460557077,-6.389737534922753,0.0,0.0
2.845691382765531,0.27283286980784305,-1.3135986847750136,-0.2398142845945187,1.0262770803378647,-5.909197917887841,0.0,0.0
2.8657314629258517,0.24432544807705292,-1.425371086539507,-0.21742932451516495,1.1192480039676875,-5.39488575269344,0.0,0.0
2.885771543086172,0.21377485852284883,-1.5275294777102038,-0.1933212832386078,1.2054020638278566,-4.849139027484539,0.0,0.0
2.905811623246493,0.18138556713700832,-1.6194645692920249,-0.16763721428083253,1.2842034478887645,-4.273814455245189,0.0,0.0
2.9258517034068134,0.14737361211844263,-1.7005977509282841,-0.14053525293809965,1.3550980671366435,-3.67039145201935,0.0,0.0
2.9458917835671343,0.11196611254416466,-1.770374978713898,-0.11218502248900629,1.417511522454668,-3.040100230176695,0.0,0.0
2.9659318637274548,0.07540084589045806,-1.8282633326853304,-0.08276799014391416,1.4708516172546064,-2.384068028250933,0.0,0.0
2.9859719438877756,0.037925834865777885,-1.873750551234009,-0.05247767886121357,1.5145155641350294,-1.7034782037021636,0.0,0.0
3.006012024048096,-0.00020111967298391126,-1.9063477269380897,-0.0215196430129395,1.5479017924137035,-0.9997372421956798,0.0,0.0
3.0260521042084165,-0.038713024235321684,-1.9255952281168887,0.00988887688717699,1.5704259950058246,-0.2746447216350256,0.0,0.0
3.0460921843687374,-0.07733446003740084,-1.9310717901039578,0.041519692327382604,1.5815407720102805,0.4694390190231661,0.0,0.0
3.066132264529058,-0.11578259203184502,-1.9224065997222086,0.07313485152921972,1.580757960091856,1.2294332753057837,0.0,0.0
3.0861723446893787,-0.15376847357080925,-1.8992940769482118,0.10448830179724149,1.567672513401088,2.0013919897354553,0.0,0.0
3.106212424849699,-0.19099869235588018,-1.861510939253547,0.13532803487159653,1.5419866537177527,2.780381117247258,0.0,0.0
3.12625250501002,-0.22717739259863257,-1.8089350121376198,0.16539869393478862,1.5035329531596051,3.5603878678935392,0.0,0.0
3.1462925851703405,-0.2620086948502188,-1.7415651125793126,0.19444459492895283,1.452295049708211,4.3342738989578375,0.0,0.0
3.1663326653306614,-0.29519951810540956,-1.6595411627595356,0.2222130908716063,1.3884247971326722,5.093787705593693,0.0,0.0
