time,x,x_dot,theta,theta_dot,u,x_ref,theta_ref
0.0,0.3031085672401317,0.053987767931597125,0.09244768498574707,-0.09606780106482463,4.245044949184377,0.0,0.0
0.02004008016032064,0.30581750297532406,0.13544678675961797,0.0886369931422855,-0.19053459217307817,3.969539351442976,0.0,0.0
0.04008016032064128,0.31004937275578554,0.2115934890230731,0.0830724675580358,-0.2782262792124852,3.6822776602606897,0.0,0.0
0.06012024048096192,0.3156938751513787,0.2822251197796582,0.07588521900217593,-0.35936242779299293,3.3685630158074895,0.0,0.0
0.08016032064128256,0.3226308583803635,0.34684916144923944,0.06721153462870595,-0.4336842186734986,3.0308875972976907,0.0,0.0
0.1002004008016032,0.3307312283636033,0.40501849916199095,0.057192457457358,-0.5009538585673976,2.6717039166507863,0.0,0.0
0.12024048096192384,0.33985784380915524,0.456330772277597,0.04597338736717031,-0.5609535045093845,2.2934490790549145,0.0,0.0
0.1402805611222445,0.3498664097086767,0.5004282949760741,0.03370367434194707,-0.6134856512611623,1.8985612908616294,0.0,0.0
0.16032064128256512,0.3606063770322766,0.5369983661799949,0.020536183440308615,-0.6583745450819228,1.4895061706335286,0.0,0.0
0.18036072144288576,0.37192185964001845,0.5657741303870931,0.006626809590233635,-0.695468692503749,1.0688078561933616,0.0,0.0
0.2004008016032064,0.38365258070598146,0.5865360532981511,-0.007866078219525821,-0.7246443904879728,0.639081839049087,0.0,0.0
0.22044088176352705,0.39563486105143547,0.5991140172727015,-0.022782280765865144,-0.7458101273169662,0.2030664690996457,0.0,0.0
0.24048096192384769,0.40770266073630307,0.6033899842433792,-0.037960513486389,-0.7589116360261928,-0.23634987573084082,0.0,0.0
0.2605210420841683,0.41968868311153174,0.5993011187614333,-0.053239260007642245,-0.7639373260626622,-0.676108842585819,0.0,0.0
0.280561122244489,0.4314255473668435,0.5868432127655903,-0.06845773554262584,-0.7609237767491794,-1.1129720699489933,0.0,0.0
0.3006012024048096,0.4427470315272353,0.5660742080195905,-0.08345695454819929,-0.7499609502786729,-1.5435234535027411,0.0,0.0
0.32064128256513025,0.4534893830037944,0.5371175738279529,-0.09808089003032117,-0.7311967741060936,-1.9641856485181752,0.0,0.0
0.3406813627254509,0.46349268838372804,0.5001652689966838,-0.11217770510911688,-0.7048407539397856,-2.3712521072832606,0.0,0.0
0.3607214428857715,0.4726022884046198,0.45548000104458947,-0.12560103130353623,-0.6711663097209666,-2.7609350877940395,0.0,0.0
0.3807615230460922,0.4806702183220297,0.40339649587049514,-0.13821126286572077,-0.6305115781092281,-3.129428971307893,0.0,0.0
0.4008016032064128,0.48755664854350084,0.34432151107355546,-0.14987683277607664,-0.5832784955177924,-3.472986922867312,0.0,0.0
0.42084168336673344,0.49313129592286264,0.2787323689680894,-0.16047543405884196,-0.5299300641382669,-3.788007511591654,0.0,0.0
0.4408817635270541,0.4972747729730452,0.2071738525091258,-0.16989515019118398,-0.47098580661710165,-4.071126533860336,0.0,0.0
0.4609218436873747,0.4998798409249362,0.13025339759455265,-0.17803546074893908,-0.4070155278877552,-4.319308163559664,0.0,0.0
0.48096192384769537,0.5008525333970775,0.04863462360706447,-0.18480809309538293,-0.3386316173221929,-4.529928921596582,0.0,0.0
0.501002004008016,0.5001131206298043,-0.03697063836366145,-0.19013769770562103,-0.266480230511905,-4.700848005113029,0.0,0.0
0.5210420841683366,0.49759688971567206,-0.12581154570661246,-0.1939623332228231,-0.19123177586010462,-4.830458348825019,0.0,0.0
0.5410821643286573,0.4932547236839255,-0.21710830158732985,-0.19623375692844772,-0.11357118528123095,-4.917714367661684,0.0,0.0
0.561122244488978,0.4870534710666493,-0.31006263086380925,-0.19691752616672786,-0.034188461914007054,-4.962134465661908,0.0,0.0
0.5811623246492986,0.4789761068927524,-0.403868208694845,-0.19599292550566572,0.046230033053107605,-4.963778787389279,0.0,0.0
0.6012024048096192,0.46902169504804475,-0.4977205922353813,-0.19345274219827222,0.12700916536967544,-4.923204981759458,0.0,0.0
0.6212424849699398,0.45720516977910025,-0.5908262634472252,-0.189302918147879,0.20749120251966016,-4.841406618494726,0.0,0.0
0.6412825651302605,0.4435569601446436,-0.6824104817228327,-0.18356210965313402,0.28704042473724845,-4.719740119393937,0.0,0.0
0.6613226452905812,0.4281224850144891,-0.7717237565077257,-0.17626118657924972,0.36504615369421556,-4.5598465457563195,0.0,0.0
0.6813627254509018,0.4109615476412396,-0.8580468686624727,-0.16744270042413573,0.4409243077556996,-4.36357436131317,0.0,0.0
0.7014028056112224,0.3921476579988566,-0.9406944821191505,-0.15716034640331752,0.5141177010409096,-4.13290850906066,0.0,0.0
0.721442885771543,0.3717673083112397,-1.019017484380844,-0.14547843870029079,0.5840953851513364,-3.8699099964181274,0.0,0.0
0.7414829659318637,0.3499192229280642,-1.0924042691587759,-0.13247141102332,0.6503513838485395,-3.576668877353863,0.0,0.0
0.7615230460921844,0.32671359844404047,-1.1602812242011873,-0.1182233471793665,0.7124031921976746,-3.2552722237126677,0.0,0.0
0.781563126252505,0.3022713441939793,-1.2221127125030593,-0.10282753907395537,0.7697904052705564,-2.9077875094048964,0.0,0.0
0.8016032064128256,0.276723327432398,-1.2774008380790633,-0.08638606284796212,0.8220738112996622,-2.536260855474006,0.0,0.0
0.8216432865731462,0.2502096219928641,-1.3256852719766958,-0.06900935815683146,0.868835234556533,-2.142728818018228,0.0,0.0
0.8416833667334669,0.2228787543098181,-1.3665433841523003,-0.05081579118767123,0.9096783484580112,-1.7292418282021147,0.0,0.0
0.8617234468937875,0.19488693659124778,-1.3995908859285158,-0.031931179118354955,0.944230603465814,-1.297896979065288,0.0,0.0
0.8817635270541082,0.1663972738083694,-1.424483139143918,-0.012488252497967003,0.9721463310193976,-0.8508775565047877,0.0,0.0
0.9018036072144289,0.13757892912223946,-1.440917234306497,0.0073739674583838954,0.993110997817545,-0.3904964939374571,0.0,0.0
0.9218436873747494,0.10860623146201906,-1.4486348830110198,0.02751089742310391,1.0068464982360006,0.08075923781040373,0.0,0.0
0.9418837675350701,0.07965770924085809,-1.4474261110580482,0.0477732432387826,1.0131172907839345,0.5601864300760718,0.0,0.0
0.9619238476953907,0.05091503565515959,-1.4371336792849247,0.06800798547112119,1.0117371116169298,1.0448288612357313,0.0,0.0
0.9819639278557114,0.022561873654120677,-1.4176581000519457,0.08805950423782748,1.002575938335314,1.531449261584596,0.0,0.0
1.002004008016032,-0.005217387536559117,-1.3889630595339897,0.10777084091777006,0.9855668339971289,2.0165133558976236,0.0,0.0
1.0220440881763526,-0.03223900754692306,-1.3510810005181975,0.12698508645300488,0.9607122767617408,2.4961892445770757,0.0,0.0
1.0420841683366733,-0.05832137892372512,-1.304118568840103,0.14554687797080001,0.928089575889756,2.96636513944332,0.0,0.0
1.062124248496994,-0.08328661055091065,-1.2482615813592766,0.1633039777697894,0.8878549899494679,3.4226879651185174,0.0,0.0
1.0821643286573146,-0.10696219331798626,-1.1837791383537808,0.1801089017206082,0.8402461975409409,3.860624464605239,0.0,0.0
1.1022044088176353,-0.12918272299962313,-1.1110264840818438,0.1958205582101501,0.785582824477095,4.2755451132125755,0.0,0.0
1.122244488977956,-0.14979164746832757,-1.0304462234352219,0.2103058543066447,0.7242648048247299,4.662829304265276,0.0,0.0
1.1422845691382766,-0.1686429982375567,-0.9425675384614576,0.2234412232660737,0.6567684479714503,5.01798798661047,0.0,0.0
1.1623246492985972,-0.1856030607078622,-0.8480031235152744,0.23511402728661268,0.583640201026949,5.33679742090282,0.0,0.0
1.1823647294589177,-0.200551934223092,-0.7474436757614897,0.24522379196762942,0.5054882340508365,5.615435357633328,0.0,0.0
1.2024048096192383,-0.21338493294099445,-0.6416499358951223,0.25368323453925806,0.4229721285814318,5.8506092211041,0.0,0.0
1.222444889779559,-0.22401378215358436,-0.5314424606294964,0.2604190566376667,0.3367911049204319,6.039665311725468,0.0,0.0
1.2424849699398797,-0.23236757221568774,-0.4176895031051686,0.26537248386952617,0.24767136159297293,6.180668965103913,0.0,0.0
1.2625250501002003,-0.2383934432759448,-0.3012935530128537,0.2684995478526966,0.15635319915852192,6.272448086257528,0.0,0.0
1.282565130260521,-0.24205698761911543,-0.18317721715853097,0.2697711206524197,0.06357863998615701,6.31459620545606,0.0,0.0
1.3026052104208417,-0.2433423712472489,-0.06426918140667252,0.26917272512232787,-0.02991977650459235,6.307435563119397,0.0,0.0
1.3226452905811623,-0.24225219076175472,0.05450902427470819,0.26670415617168897,-0.12342844753194403,6.251944957163038,0.0,0.0
1.342685370741483,-0.23880709413647971,0.17225483126375002,0.2623789562302241,-0.21625999707324123,6.1496604653379725,0.0,0.0
1.3627254509018036,-0.23304520339464158,0.28809453709190724,0.25622379243484855,-0.30775818976877833,6.002559207841693,0.0,0.0
1.3827655310621243,-0.22502138281417017,0.4011910290235704,0.2482777831241315,-0.39730046553585235,5.812936889022363,0.0,0.0
1.4028056112224447,-0.2148063979235597,0.5107492445305231,0.2385918174099834,-0.4842982857074063,5.58328909988163,0.0,0.0
1.4228456913827654,-0.2024860085333196,0.6160194695120056,0.2272279046027092,-0.56819564036371,5.316204639564615,0.0,0.0
1.442885771543086,-0.1881600340418492,0.7162987245735204,0.21425858101316775,-0.6484661794770724,5.014276869955882,0.0,0.0
1.4629258517034067,-0.17194142210595903,0.8109305967945086,0.1997663911156088,-0.7246094948779482,4.6800367696946,0.0,0.0
1.4829659318637274,-0.15395534335260658,0.8993039376676222,0.1838434491254317,-0.7961470995088534,4.315909215873295,0.0,0.0
1.503006012024048,-0.13433832592548833,0.9808508713559124,0.1665910764812829,-0.8626186322074406,3.924192275435453,0.0,0.0
1.5230460921843687,-0.11323743495885262,1.0550445483317854,0.14811950110803057,-0.9235787686626163,3.5070579942076363,0.0,0.0
1.5430861723446894,-0.09080949403789138,1.1213970460480622,0.1285475961128054,-0.9785952497612596,3.066572299684522,0.0,0.0
1.56312625250501,-0.06722033867481,1.1794577681540688,0.10800262904945686,-1.0272483531674264,2.6047311006521587,0.0,0.0
1.5831663326653307,-0.042644086014372674,1.2288126330218665,0.08661998831354631,-1.0691320367955277,2.1235093702549444,0.0,0.0
1.6032064128256511,-0.017262400507038735,1.2690842753666969,0.06454285077682516,-1.1038568768360573,1.6249198419414055,0.0,0.0
1.6232464929859718,0.008736267779918254,1.2999334143478494,0.0419217545600354,-1.1310548108394882,1.1110778515468192,0.0,0.0
1.6432865731462925,0.035157497167363605,1.3210614693722675,0.018914042934810815,-1.1503855812612291,0.5842687700359207,0.0,0.0
1.6633266533066131,0.06180178580392376,1.3322144318280078,-0.004316850287716459,-1.1615446611263636,0.04701435928175246,0.0,0.0
1.6833667334669338,0.08846554435816135,1.3331879277118797,-0.02760229701955309,-1.1642723365918315,-0.49786576391892146,0.0,0.0
1.7034068136272544,0.11494221101803788,1.323833332993826,-0.05076956756833953,-1.1583635274393218,-1.0472015476811825,0.0,0.0
1.723446893787575,0.1410235056370223,1.304064730949221,-0.07364312461067685,-1.1436778521168658,-1.5974329873295368,0.0,0.0
1.7434869739478958,0.16650083421713216,1.2738664290054935,-0.09604611248872516,-1.1201493939024154,-2.144588001361711,0.0,0.0
1.7635270541082164,0.19116684786883706,1.2333006825852455,-0.11780202453072217,-1.0877956020998503,-2.684282074034754,0.0,0.0
1.783567134268537,0.21481715199834844,1.1825152064755693,-0.1387365198824244,-1.0467247675851108,-3.2117438465626753,0.0,0.0
1.8036072144288577,0.2372521518691807,1.1217499935416118,-0.15867935077015338,-0.99714154438645,-3.721870241990586,0.0,0.0
1.8236472945891782,0.25827901010888643,1.0513429119852866,-0.17746635170588546,-0.9393500467866036,-4.209313497622774,0.0,0.0
1.8436873747494988,0.27771368061478574,0.9717335252949646,-0.19494143439522366,-0.8737541344669104,-4.668600458608921,0.0,0.0
1.8637274549098195,0.29538297234803457,0.8834645866624424,-0.21095852657089822,-0.8008546087837283,-5.094281563526504,0.0,0.0
1.8837675350701402,0.31112658669072885,0.7871807171347138,-0.22538339028705628,-0.7212431858079037,-5.481103247728469,0.0,0.0
1.9038076152304608,0.3247990646424528,0.6836238975861966,-0.23809525608902996,-0.6355932900986834,-5.824193429562892,0.0,0.0
1.9238476953907815,0.3362715765406651,0.5736255949106152,-0.2489882146051808,-0.5446479258075424,-6.119246073150815,0.0,0.0
1.9438877755511021,0.34543348845291943,0.4580955956127167,-0.2579723169383322,-0.44920511665757085,-6.362688477716848,0.0,0.0
1.9639278557114228,0.3521936466800234,0.33800791135519814,-0.2649743497087648,-0.35010163852163073,-6.551814796631748,0.0,0.0
1.9839679358717435,0.35648133490944023,0.21438441147084114,-0.26993826894331874,-0.2481959617276963,-6.684871813090046,0.0,0.0
2.004008016032064,0.3582468764905948,0.0882770790577262,-0.27282529766093117,-0.14435143588062227,-6.761088018062205,0.0,0.0
2.024048096192385,0.35746187520260536,-0.03925006439947165,-0.2736137128127753,-0.0394207575922057,-6.780643702982625,0.0,0.0
2.0440881763527052,0.3541191093102273,-0.16713829461890542,-0.27229836580700256,0.0657673502886356,-6.744586800057748,0.0,0.0
2.064128256513026,0.34823211311556324,-0.29434980973320235,-0.2688899950425902,0.1704185382206172,-6.654705212610085,0.0,0.0
2.0841683366733466,0.3398344954670351,-0.4198808824264063,-0.26341439722092597,0.2737798910832111,-6.513370344835088,0.0,0.0
2.1042084168336674,0.3289790544030425,-0.5427720531996308,-0.2559115261307836,0.37514355450711784,-6.3233680192450965,0.0,0.0
2.124248496993988,0.3157367508207454,-0.6621151791148523,-0.24643458345124153,0.47384713397710326,-6.087732121297359,0.0,0.0
2.1442885771543083,0.30019560215065116,-0.7770574335047123,-0.23504915693227538,0.569271325948308,-5.80959372762436,0.0,0.0
2.164328657314629,0.28245955048540416,-0.8868025832623512,-0.22183244854259201,0.6608354194841686,-5.492054950573321,0.0,0.0
2.1843687374749496,0.26264734978335713,-0.9906100351023529,-0.2068726203622791,0.747991409015645,-5.138093020666039,0.0,0.0
2.2044088176352705,0.2408915050242302,-1.0877922379563456,-0.1902682705466708,0.8302174907804145,-4.7504967946878045,0.0,0.0
2.224448897795591,0.21733728376744643,-1.177711062839188,-0.17212803672742896,0.9070116909620922,-4.331835238516662,0.0,0.0
2.244488977955912,0.19214180842781448,-1.2597737669815972,-0.15257031057299444,0.9778863077217254,-3.884455581834357,0.0,0.0
2.2645290581162323,0.16547322642728718,-1.3334291000263645,-0.1317230354656567,1.0423637553668874,-3.410507704986464,0.0,0.0
2.284569138276553,0.13750994563966124,-1.3981640393812969,-0.1097235497410687,1.0999742862294002,-2.9119907331875794,0.0,0.0
2.3046092184368736,0.108439914456736,-1.453501559146262,-0.08671843094311493,1.1502559398976884,-2.3908175919152415,0.0,0.0
2.3246492985971945,0.0784599194801865,-1.4989997488274744,-0.06286329228308689,1.192756933001402,-1.8488932470398094,0.0,0.0
2.344689378757515,0.04777486932174181,-1.5342525079222347,-0.038322481134249464,1.227040557441871,-1.2882023817639605,0.0,0.0
2.3647294589178354,0.016597030281132175,-1.5588919520304818,-0.013268631069877617,1.2526925032185923,-0.7109022638118553,0.0,0.0
2.3847695390781563,-0.014854821238392341,-1.5725925759762258,0.012117976297408125,1.2693303683642871,-0.11941648175279818,0.0,0.0
2.4048096192384767,-0.04635636383028144,-1.5750771295944548,0.03765027569987102,1.2766149701231448,0.4834749414377928,0.0,0.0
2.4248496993987976,-0.07767884527691235,-1.5661240723315455,0.0631355344539001,1.274262937701454,1.0945538229906258,0.0,0.0
2.444889779559118,-0.10859037294551552,-1.5455763834301586,0.08837673360665138,1.2620599576375642,1.7100956215097205,0.0,0.0
2.464929859719439,-0.13885740123919937,-1.5133514146841933,0.1131742129376194,1.2398739665484007,2.32582035918459,0.0,0.0
2.4849699398797593,-0.1682464288701408,-1.4694513815470718,0.13732756388773384,1.207667547505723,2.9368687435812406,0.0,0.0
2.50501002004008,-0.19652590876504378,-1.4139739947451495,0.160637739597459,1.165508785486258,3.5378099537953136,0.0,0.0
2.5250501002004007,-0.22346836153923996,-1.3471226387098096,0.18290933698944556,1.1135798695993273,4.122687599872938,0.0,0.0
2.5450901803607215,-0.24885266971779307,-1.2692154089276555,0.20395299276212256,1.0521827886338495,4.685109685170062,0.0,0.0
2.565130260521042,-0.2724665144795066,-1.1806922380856755,0.22358782371834124,0.981741547810934,5.218386507543398,0.0,0.0
2.5851703406813624,-0.2941089002819987,-1.082119290124606,0.24164383254825628,0.902800441495752,5.71571686021888,0.0,0.0
2.6052104208416833,-0.313592696494617,-0.9741898106309148,0.25796419377376234,0.8160180612753029,6.170417428734088,0.0,0.0
2.6252505010020037,-0.330747110989407,-0.857720724739499,0.2724073321717103,0.7221569198973976,6.576183280191129,0.0,0.0
2.6452905811623246,-0.3454200009426032,-0.7336444976598099,0.28484870906362664,0.6220688445958161,6.927359914187477,0.0,0.0
2.665330661322645,-0.357479923466937,-0.6029961262166896,0.29518224180808794,0.5166766372230654,7.219201261424262,0.0,0.0
2.685370741482966,-0.36681783523752587,-0.46689558852944113,0.3033212995039757,0.40695288479438596,7.4480853452041575,0.0,0.0
2.7054108216432864,-0.373348366867726,-0.326526581510005,0.30919924295269174,0.29389717243580216,7.611661815858224,0.0,0.0
2.7254509018036073,-0.3770106234377346,-0.1831128285004316,0.31276950728057457,0.1785132163941408,7.708913313810795,0.0,0.0
2.7454909819639277,-0.37776849438601745,-0.03789354741414136,0.3140052577556826,0.06178752375540099,7.740123921542265,0.0,0.0
2.7655310621242486,-0.37561048979440675,0.10790022958053555,0.31289867909461094,-0.055328933053583634,7.706760450867658,0.0,0.0
2.785571142284569,-0.3705491514026731,0.25306691958668365,0.30945998206531394,-0.1719348514648505,7.611283883329118,0.0,0.0
2.8056112224448895,-0.362620111314538,0.3964520044067541,0.3037162253502816,-0.2871878357516182,7.456915561175586,0.0,0.0
2.8256513026052104,-0.3518808867537983,0.536961228036984,0.29571005430165115,-0.4003085524315224,7.247384965221032,0.0,0.0
2.845691382765531,-0.3384095047049584,0.6735691024419964,0.28549845212407293,-0.5105801088789107,6.986684018612533,0.0,0.0
2.8657314629258517,-0.3223030466301179,0.805322903742026,0.2731515850495576,-0.6173433537257674,6.678847809230156,0.0,0.0
2.885771543086172,-0.30367619261946044,0.9313427005328708,0.2587518038056419,-0.7199890621957855,6.327775106403941,0.0,0.0
2.905811623246493,-0.2826598287370409,1.0508181941209769,0.24239284176832712,-0.8179481018657383,5.937095585872611,0.0,0.0
2.9258517034068134,-0.25939976334630677,1.163003269536706,0.22417922786795558,-0.910680695018578,5.510085265673288,0.0,0.0
2.9458917835671343,-0.23405557981718128,1.2672091764562738,0.20422591119978734,-0.9976658334084115,5.049627755903077,0.0,0.0
2.9659318637274548,-0.20679963564693274,1.3627972085124267,0.18265807539076678,-1.0783917904510276,4.558216554552884,0.0,0.0
2.9859719438877756,-0.17781620253738223,1.4491716554775262,0.15961110462405148,-1.152348538335765,4.037992513341352,0.0,0.0
3.006012024048096,-0.14730072878329775,1.5257736877042238,0.13523065007418475,-1.219022727493337,3.4908103650344073,0.0,0.0
3.0260521042084165,-0.11545919456324097,1.592076711002839,0.10967273550592038,-1.2778957284132186,2.9183284600733908,0.0,0.0
3.0460921843687374,-0.08250752234582566,1.6475836108707655,0.08310383410939878,-1.32844506982608,2.3221162918935234,0.0,0.0
3.066132264529058,-0.04867099853710504,1.6918261904360308,0.055700845528000004,-1.3701494290699388,1.7037747821551799,0.0,0.0
3.0861723446893787,-0.014183658613033404,1.724366996203582,0.027650902775011647,-1.4024971376494177,1.065064532745546,0.0,0.0
3.106212424849699,0.020712413748158118,1.744803618059576,-0.0008490564183378305,-1.4249979596674738,0.4080372865341111,0.0,0.0
3.12625250501002,0.05576792261806183,1.7527754434951854,-0.029593010243048022,-1.4371976912355096,-0.26483432501579607,0.0,0.0
3.1462925851703405,0.09072737741697835,1.747972739945826,-0.05836690883413178,-1.4386949295541878,-0.9505340258697853,0.0,0.0
3.1663326653306614,0.12533033408147579,1.7301478332248714,-0.08695009261795676,-1.429159189191249,-1.6453919648572004,0.0,0.0
