time,x,x_dot,theta,theta_dot,u,x_ref,theta_ref
0.0,1.6126872436594417,-0.08646434752767339,0.06909232564014567,-0.005491058804152682,9.999999923648383,0.0,0.0
0.02004008016032064,1.6148391233246666,0.10759398326123938,0.06358395861134293,-0.27541835144013666,9.851179540954249,0.0,0.0
0.04008016032064128,1.6208159784207512,0.2988427548042256,0.05272668745002484,-0.5428635580659047,9.00698895743018,0.0,0.0
0.06012024048096192,1.6302921023216475,0.4738061950448076,0.03694077732614284,-0.7892955061940999,8.050734108574366,0.0,0.0
0.08016032064128256,1.642899390201484,0.6303643939918224,0.016681283870272238,-1.0129746727935303,7.036340557697963,0.0,0.0
0.1002004008016032,1.6582479391898677,0.7674274494191935,-0.007588941056038155,-1.2135112463155195,5.972251733707608,0.0,0.0
0.12024048096192384,1.675928963806773,0.8840512308452593,-0.0354001880828923,-1.3905623513427074,4.858263279121592,0.0,0.0
0.1402805611222445,1.6955144381791132,0.9792737186170184,-0.06627251643311116,-1.5436164175109428,3.691907530366146,0.0,0.0
0.16032064128256512,1.7165559859606727,1.0520773890779735,-0.09971195306192546,-1.6719718314407148,2.470388317153619,0.0,0.0
0.18036072144288576,1.7385837914366844,1.10139027380058,-0.1352074780988165,-1.7747762518445525,1.1916441792334507,0.0,0.0
0.2004008016032064,1.761105951399271,1.1261079981293385,-0.17222941306779047,-1.851096748448698,-0.1447845976839668,0.0,0.0
0.22044088176352705,1.783608593563382,1.1251321082055523,-0.21022960278435956,-1.900009485828455,-1.536949498234892,0.0,0.0
0.24048096192384769,1.8055570434345038,1.0974224935560932,-0.2486436124634178,-1.9207004839529112,-2.979706478244718,0.0,0.0
0.2605210420841683,1.8263982929622555,1.0420624763875874,-0.2868950040126912,-1.9125695774636713,-4.46391239546691,0.0,0.0
0.280561122244489,1.8455650120747331,0.9583359556238767,-0.3244016256900818,-1.8753310838695292,-5.9755702418627505,0.0,0.0
0.3006012024048096,1.8624813519114072,0.8458169918337048,-0.360583771519216,-1.8091072914567095,-7.494924507858316,0.0,0.0
0.32064128256513025,1.8765708055252597,0.7044726806926225,-0.3948740463784354,-1.7145137429609671,-8.99562248174966,0.0,0.0
0.3406813627254509,1.887266375885137,0.5347785179938652,-0.42672877143088733,-1.592736252622598,-9.999999998941265,0.0,0.0
0.3607214428857715,1.8941943919658901,0.3464008040376647,-0.4558743473326646,-1.4572787950888615,-9.999999997797707,0.0,0.0
0.3807615230460922,1.897368412394854,0.1587010214481967,-0.4825541834547734,-1.333991806105443,-9.999999999999993,0.0,0.0
0.4008016032064128,1.896800798549238,-0.028380692280797593,-0.5069924147170796,-1.2219115631153052,-9.999999999999998,0.0,0.0
0.42084168336673344,1.8925027577616025,-0.21490203938177724,-0.5293951951987097,-1.1201390240815094,-9.999999999999922,0.0,0.0
0.4408817635270541,1.8844844117857433,-0.40091729879295246,-0.5499520327679666,-1.027841878462843,-10.0,0.0,0.0
0.4609218436873747,1.8727548788806239,-0.586476645255972,-0.5688371192731663,-0.9442543252599854,-9.99999999999995,0.0,0.0
0.48096192384769537,1.8573223615943162,-0.7716258643153798,-0.5862106264514074,-0.8686753589120588,-9.999999999999572,0.0,0.0
0.501002004008016,1.8381942350308091,-0.9564063281753505,-0.6022199490172307,-0.8004661282911688,-9.999999999998645,0.0,0.0
0.5210420841683366,1.8153771323032362,-1.1408551363786488,-0.6170008844368068,-0.7390467709788012,-10.0,0.0,0.0
0.5410821643286573,1.788877025219414,-1.325005354191116,-0.6306787445204932,-0.6838930041843213,-10.0,0.0,0.0
0.561122244488978,1.758699299165736,-1.508886302683896,-0.6433693978292024,-0.6345326654354619,-9.999999999999956,0.0,0.0
0.5811623246492986,1.7248488217717863,-1.6925238696974836,-0.6551802444805436,-0.5905423325670545,-10.0,0.0,0.0
0.6012024048096192,1.6873300053385603,-1.8759408216613005,-0.6662111266253188,-0.5515441072387589,-10.0,0.0,0.0
0.6212424849699398,1.6461468632623726,-2.059157103809388,-0.6765551789123716,-0.5172026143526431,-9.99999999999927,0.0,0.0
0.6412825651302605,1.6013030608310277,-2.2421901215672486,-0.6862996238652802,-0.4872222476454321,-10.0,0.0,0.0
0.6613226452905812,1.552801960841977,-2.425054999452541,-0.6955265173985994,-0.46134467666595635,-9.999999999999746,0.0,0.0
0.6813627254509018,1.5006466645175396,-2.607764816221864,-0.7043134498047687,-0.4393466203084671,-10.0,0.0,0.0
0.7014028056112224,1.4448400481862413,-2.79033081656491,-0.7127342075165948,-0.4210378855913016,-10.0,0.0,0.0
0.721442885771543,1.385384796173203,-2.972762600651918,-0.720859400844368,-0.40625966638865996,-10.0,0.0,0.0
0.7414829659318637,1.3222834303038347,-3.1550682934684247,-0.7287570627358181,-0.39488309457250714,-10.0,0.0,0.0
0.7615230460921844,1.2555383363787478,-3.3372546962543415,-0.7364932234348684,-0.38680803495251803,-9.999999999999964,0.0,0.0
0.781563126252505,1.185151787926761,-3.5193274225993414,-0.7441324657371976,-0.381962115116459,-9.999999999999988,0.0,0.0
0.8016032064128256,1.1111259674887155,-3.7012910219022737,-0.7517384653669082,-0.3802999814855307,-10.0,0.0,0.0
0.8216432865731462,1.0334629856281152,-3.883149093030016,-0.7593745208349082,-0.3818027733999964,-10.0,0.0,0.0
0.8416833667334669,0.9521648978051241,-4.064904391149553,-0.7671040769886055,-0.3864778076848624,-9.999999999999774,0.0,0.0
0.8617234468937875,0.8672337191873885,-4.246558930886782,-0.7749912463244979,-0.39435846679461956,-9.999999999999998,0.0,0.0
0.8817635270541082,0.7786714374031312,-4.428114089212864,-0.7831013320085779,-0.40550428420400253,-10.0,0.0,0.0
0.9018036072144289,0.6864800231671778,-4.609570711797666,-0.7915013564308893,-0.42000122111556965,-9.999999999999941,0.0,0.0
0.9218436873747494,0.5906614386266953,-4.790929227024129,-0.800260599005222,-0.4379621287166369,-9.999999999995223,0.0,0.0
0.9418837675350701,0.4912176431776636,-4.972189772451586,-0.809451146806425,-0.4595273900601534,-9.999999999999996,0.0,0.0
0.9619238476953907,0.388150596392087,-5.153352339278829,-0.8191484615080585,-0.48486573508167524,-9.999999999999998,0.0,0.0
0.9819639278557114,0.2814622575657735,-5.334416941315676,-0.8294319659322403,-0.5141752212090895,-10.0,0.0,0.0
1.002004008016032,0.17115458124244845,-5.515383816166251,-0.8403856533394761,-0.547684370361788,-10.0,0.0,0.0
1.0220440881763526,0.0572295078867857,-5.696253667783138,-0.8520987223548228,-0.5856534507673312,-10.0,0.0,0.0
1.0420841683366733,-0.06031105133958824,-5.877027961318697,-0.8646662401309578,-0.6283758888067553,-9.999999999999993,0.0,0.0
1.062124248496994,-0.18146523700574746,-6.057709283307962,-0.8781898359690676,-0.6761797919054908,-9.590644365794411,0.0,0.0
1.0821643286573146,-0.3060781621828035,-6.230646258852802,-0.8929249874870714,-0.7367575759001858,9.999999999888406,0.0,0.0
1.1022044088176353,-0.426828418214687,-6.037512801594175,-0.9158686269291572,-1.147181972104288,9.999999999999998,0.0,0.0
1.122244488977956,-0.5437350898757602,-5.845333583053663,-0.9469822427489509,-1.5556807909896913,9.999999992350288,0.0,0.0
1.1422845691382766,-0.6568257510588459,-5.6545330591542795,-0.9862069275825378,-1.9612342416793436,9.999999999999998,0.0,0.0
1.1623246492985972,-0.7661370159621049,-5.465563245162953,-1.0334586848531988,-2.3625878635330495,9.999999999999938,0.0,0.0
1.1823647294589177,-0.8717150055659563,-5.2788994801925675,-1.0886231735093284,-2.7582244328064753,9.999999999933902,0.0,0.0
1.2024048096192383,-0.9736155677337769,-5.095028108391029,-1.1515502935485014,-3.1463560019586505,9.999999999999996,0.0,0.0
1.222444889779559,-1.0719040710641388,-4.914425166518092,-1.2220490019949652,-3.524935422323189,9.999999999999996,0.0,0.0
1.2424849699398797,-1.1666545912815394,-4.737526010870031,-1.2998826626879163,-3.8916830346475564,9.99999999999989,0.0,0.0
1.2625250501002003,-1.2579483293591456,-4.564686903880311,-1.384765069439606,-4.244120337584494,9.999999999999995,0.0,0.0
1.282565130260521,-1.3458711448335603,-4.396140773720733,-1.4763570586204189,-4.57959945904064,9.999999999972106,0.0,0.0
1.3026052104208417,-1.4305101545960455,-4.231950488124255,-1.5742633887687152,-4.895316507414815,9.9999999999996,0.0,0.0
1.3226452905811623,-1.5119494328876757,-4.07196391458151,-1.6780293808204065,-5.188299602584568,9.999999999999954,0.0,0.0
1.342685370741483,-1.5902649480246478,-3.9157757568486096,-1.7871367664386497,-5.455369280912157,9.999999999999643,0.0,0.0
1.3627254509018036,-1.6655189835252546,-3.7627017750303438,-1.9009983639555121,-5.693079875843121,9.999999999991644,0.0,0.0
1.3827655310621243,-1.7377544165957586,-3.6117716535252,-2.018951647055572,-5.897664155003002,9.99999999999999,0.0,0.0
1.4028056112224447,-1.806989364998938,-3.4617474201589618,-2.140251994213991,-6.06501735792093,9.999999999999968,0.0,0.0
1.4228456913827654,-1.873212853093406,-3.311174404723404,-2.2640673234246758,-6.190766460534238,9.99999999861246,0.0,0.0
1.442885771543086,-1.9363822546768636,-3.1584700791728766,-2.38947671503742,-6.270469580637227,9.999999999999986,0.0,0.0
1.4629258517034067,-1.9964232781734943,-3.0020511748315375,-2.5154761449350733,-6.299971494882665,10.0,0.0,0.0
1.4829659318637274,-2.0532330824494474,-2.8404902137976515,-2.640994138870048,-6.275899696748738,10.0,0.0,0.0
1.503006012024048,-2.1066866854733646,-2.6726801511958502,-2.7649186686396297,-6.196226488479093,9.999999999997398,0.0,0.0
1.5230460921843687,-2.156646179825942,-2.4979747176288716,-2.886134008362879,-6.060766986162466,9.999999999986365,0.0,0.0
1.5430861723446894,-2.202971564564555,-2.316269236930649,-3.003563266338473,-5.87146289877969,9.999999999999819,0.0,0.0
1.56312625250501,-2.245531513580597,-2.12799745080211,-3.116210117085917,-5.632342537372215,9.999999999999995,0.0,0.0
1.5831663326653307,-2.2842123662275227,-1.9340426323462814,-3.2231929708643516,-5.349142688921729,10.0,0.0,0.0
1.6032064128256511,-2.318924094896185,-1.7355864334331126,-3.323766677472964,-5.028685330430625,10.0,0.0,0.0
1.6232464929859718,-2.3496027844882055,-1.5339344796010141,-3.4173300459709064,-4.6781684248971125,9.999999999999131,0.0,0.0
1.6432865731462925,-2.376209934212024,-1.3303574861909242,-3.5034206121293066,-4.304528307920011,10.0,0.0,0.0
1.6633266533066131,-2.398729407379095,-1.1259736583535407,-3.5817001244518947,-3.9139756161294006,10.0,0.0,0.0
1.6833667334669338,-2.4171630256725387,-0.9216809146721906,-3.651934823598856,-3.5117349573480694,10.0,0.0,0.0
1.7034068136272544,-2.4315257002698565,-0.7181337298658985,-3.7139740866207163,-3.1019631510930106,10.0,0.0,0.0
1.723446893787575,-2.4418407475544384,-0.5157523642290982,-3.7677299751292734,-2.687794425427863,10.0,0.0,0.0
1.7434869739478958,-2.4481357709163007,-0.31475116809311904,-3.8131591539170318,-2.271458939387912,9.999999999579721,0.0,0.0
1.7635270541082164,-2.4504392716087993,-0.11517503462491735,-3.850247799730912,-1.8544322906940132,9.999999999946585,0.0,0.0
1.783567134268537,-2.448778003737806,0.08306339354966533,-3.878999570602892,-1.4375885435989915,9.999999999999998,0.0,0.0
1.8036072144288577,-2.443175006048979,0.2801498844413397,-3.8994264159271177,-1.0213422662112879,9.999999999999734,0.0,0.0
1.8236472945891782,-2.43364821001226,0.47633980183597613,-3.911541900714259,-0.6057742393570501,9.999999999992129,0.0,0.0
1.8436873747494988,-2.4202095228587095,0.6719343576775212,-3.915356722594707,-0.19074109402238648,9.999999999989436,0.0,0.0
1.8637274549098195,-2.40286430238659,0.8672610236059589,-3.910876164878517,0.2240278858094789,9.999999999999998,0.0,0.0
1.8837675350701402,-2.3816111685673307,1.062656690962965,-3.898099321018747,0.6388421929885135,9.999999999999998,0.0,0.0
1.9038076152304608,-2.3564421297837956,1.2584519391767597,-3.877020027883938,1.053964656740438,9.999999999872987,0.0,0.0
1.9238476953907815,-2.3273430356353515,1.4549547074222084,-3.8476295489165113,1.469523948371348,9.999999999996687,0.0,0.0
1.9438877755511021,-2.2942944011996165,1.6524317217867446,-3.8099211482431534,1.8854200336678941,9.99999999998366,0.0,0.0
1.9639278557114228,-2.257272676569948,1.8510862314834295,-3.7638967855689227,2.3012181337115387,9.999999999999998,0.0,0.0
1.9839679358717435,-2.2162520558068337,2.0510310381557186,-3.7095762239928955,2.716028078801356,9.99999999997451,0.0,0.0
2.004008016032064,-2.1712069236262437,2.2522566090295038,-3.6470088501789863,3.1283686906954697,9.999999999973248,0.0,0.0
2.024048096192385,-2.1221150147770453,2.454595442459924,-3.5762884120455536,3.5360219066716327,9.999999999765633,0.0,0.0
2.0440881763527052,-2.0689612949921683,2.6576859892438454,-3.497570618672739,3.9358896686407294,9.999999999974078,0.0,0.0
2.064128256513026,-2.011742447622786,2.860942368469118,-3.4110930495358165,4.323878456846126,9.999999999206834,0.0,0.0
2.0841683366733466,-1.9504716574456868,3.0635395088549546,-3.3171960420982067,4.694850371880496,9.999999984612394,0.0,0.0
2.1042084168336674,-1.885183134501597,3.2644261472044933,-3.216342215355765,5.042691337122091,9.999999999999996,0.0,0.0
2.124248496993988,-1.8159355668339334,3.4623783833831836,-3.109131259644902,5.360547785543129,9.999999999998584,0.0,0.0
2.1442885771543083,-1.742813531838319,3.6561017497807202,-2.996306013098352,5.641262327327502,9.99999999963663,0.0,0.0
2.164328657314629,-1.6659259633512074,3.8443784243555905,-2.8787462165806748,5.877989825883855,9.999999999999998,0.0,0.0
2.1843687374749496,-1.5854011681355273,4.0262397607840015,-2.757448103078669,6.064905675100293,9.999999999999721,0.0,0.0
2.2044088176352705,-1.5013785914285827,4.201128835347231,-2.6334909851004387,6.197855898911502,9.999999999999998,0.0,0.0
2.224448897795591,-1.4139983501200053,4.369012065428868,-2.5079953294939896,6.2747827803224405,9.999999999983542,0.0,0.0
2.244488977955912,-1.3233901671701869,4.530409147490919,-2.382079065617313,6.29581319383384,9.999999999996978,0.0,0.0
2.2645290581162323,-1.2296634867887737,4.686334019070654,-2.256819010156258,6.263002773052736,9.999999999999579,0.0,0.0
2.284569138276553,-1.1329001795560898,4.838165361634191,-2.1332222984983935,6.179835582893233,8.685831147187582,0.0,0.0
2.3046092184368736,-1.0336378742677457,4.963115264417205,-2.012599147774991,6.031157536170123,5.433392601133416,0.0,0.0
2.3246492985971945,-0.9330848102396717,5.027653201403695,-1.896460775659383,5.806918605780405,0.9396836690475912,0.0,0.0
2.344689378757515,-0.8328541282840988,5.011534097778645,-1.7860444783593492,5.5208148650016895,-5.044181507284409,0.0,0.0
2.3647294589178354,-0.7350623927743275,4.889586775488562,-1.6821498161012671,5.1947331129041086,-10.0,0.0,0.0
2.3847695390781563,-0.6414276187367851,4.6817387018771175,-1.5847875581381872,4.868112898153994,-10.0,0.0,0.0
2.4048096192384767,-0.5518638393513584,4.478188969271335,-1.4933864335123013,4.570056231294291,-9.999999999827683,0.0,0.0
2.4248496993987976,-0.4662960554486515,4.278389195135344,-1.407380797048301,4.300281823200011,-9.999999999999845,0.0,0.0
2.444889779559118,-0.38466059729687874,4.081772907588639,-1.3262141788852313,4.058330908153483,-9.999999999999932,0.0,0.0
2.464929859719439,-0.306904792162569,3.887790256715487,-1.2493406880663502,3.8436745409440585,-9.999999999999996,0.0,0.0
2.4849699398797593,-0.23298623820692232,3.6959276977823334,-1.1762250968975576,3.6557795584396295,-9.79190195780625,0.0,0.0
2.50501002004008,-0.16279544571009086,3.5095396248415742,-1.106386150697208,3.4919473100174803,-6.06092318136275,0.0,0.0
2.5250501002004007,-0.0949316922248629,3.3931876742613976,-1.0402387168534566,3.307371692187567,-2.4531834823573173,0.0,0.0
2.5450901803607215,-0.028031787274595682,3.3449952475133613,-0.9784286376161775,3.0905039618639543,0.6314788259463673,0.0,0.0
2.565130260521042,0.03908194076991042,3.355686402225305,-0.9216726461828685,2.8377995716654505,2.9993979951354,0.0,0.0
2.5851703406813624,0.10732649783654398,3.4122278533316774,-0.8706225376830098,2.552505424992936,4.685283272488869,0.0,0.0
2.6052104208416833,0.17736661965168188,3.5020060907568946,-0.8258006100814527,2.241096380077858,5.780013283672758,0.0,0.0
2.6252505010020037,0.24964464453896357,3.613901244364084,-0.7875727373635492,1.9113936358951773,6.387514648770884,0.0,0.0
2.6452905811623246,0.324416474885712,3.7385915173374236,-0.7561467548723461,1.5712991245601566,6.470439413148998,0.0,0.0
2.665330661322645,0.4017355749817176,3.8659550048002775,-0.7315305732413813,1.23080908154824,6.217373322602577,0.0,0.0
2.685370741482966,0.48152305687071995,3.989374094450117,-0.7135933924631983,0.89685903890915,5.692646401732501,0.0,0.0
2.7054108216432864,0.5635920522070468,4.10344976681634,-0.7020882595124943,0.5752566475351975,4.622295382850964,0.0,0.0
2.7254509018036073,0.6475445111465523,4.197622946975275,-0.6965338137946938,0.2777222858900276,3.3116460129070378,0.0,0.0
2.7454909819639277,0.7328875050694422,4.2671496961444975,-0.6963483590385771,0.009272737805839482,1.8734566451447912,0.0,0.0
2.7655310621242486,0.8190771506031902,4.309482276687401,-0.7009058057108302,-0.22787233361265674,0.33256680734917254,0.0,0.0
2.785571142284569,0.9055292153817986,4.322603238930425,-0.7095536021593143,-0.43238982242420587,-1.3008586029265328,0.0,0.0
2.8056112224448895,0.9916240350135128,4.304740981585706,-0.7216235138801856,-0.6034955860435661,-3.5337787717146147,0.0,0.0
2.8256513026052104,1.0765157337583542,4.244584937242074,-0.7362213633040705,-0.7298924711942434,-5.786631224051175,0.0,0.0
2.845691382765531,1.1593527292905899,4.141849776611784,-0.7524827130702489,-0.8130674883089233,-7.850404180144412,0.0,0.0
2.8657314629258517,1.2393572309563177,4.000225083286392,-0.7696606383993696,-0.8588962664560348,-9.775174779623358,0.0,0.0
2.885771543086172,1.3158063334564003,3.822455125004132,-0.7871002943894171,-0.8719827995023751,-10.0,0.0,0.0
2.905811623246493,1.3886193748452085,3.6406520694404034,-0.8048545575584889,-0.8877131584535908,-10.0,0.0,0.0
2.9258517034068134,1.457800245288274,3.4590435221532694,-0.8230696052366013,-0.9107523839056221,-10.0,0.0,0.0
2.9458917835671343,1.5233525494796796,3.277615209570282,-0.8418947081825251,-0.9412551472961868,-10.0,0.0,0.0
2.9659318637274548,1.5852795908575221,3.0963520688921267,-0.8614833502155806,-0.9794321016527753,-9.999999999999993,0.0,0.0
2.9859719438877756,1.643584340241515,2.9152374691996408,-0.8819943491141281,-1.0255499449273733,-10.0,0.0,0.0
3.006012024048096,1.6982693863954073,2.734252307694622,-0.903592981241459,-1.0799316063665454,-10.0,0.0,0.0
3.0260521042084165,1.7493368654107582,2.5533739507675492,-0.9264521110112686,-1.142956488490476,-10.0,0.0,0.0
3.0460921843687374,1.796788365123989,2.3725749856615423,-0.9507533247219032,-1.2150606855317323,-10.0,0.0,0.0
3.066132264529058,1.8406248000209993,2.191821744850512,-0.9766880664538518,-1.2967370865974268,-10.0,0.0,0.0
3.0861723446893787,1.880846251268473,2.0110725623736854,-1.0044587716262177,-1.3885352586182922,-10.0,0.0,0.0
3.106212424849699,1.917451765669865,1.8302757200696043,-1.0342799914406888,-1.4910609907235568,-10.0,0.0,0.0
3.12625250501002,1.9504391065327191,1.6493670431426994,-1.0663794988092372,-1.604975368427424,-10.0,0.0,0.0
3.1462925851703405,1.979804448743663,1.4682671105471927,-1.1009993634700386,-1.7309932330400655,-10.0,0.0,0.0
3.1663326653306614,2.005542009919869,1.2868780588102997,-1.1383969808352399,-1.869880868260062,-10.0,0.0,0.0
3.186372745490982,2.027643609552994,1.1050799816562518,-1.1788460356206254,-2.0224527392692764,-10.0,0.0,0.0
3.2064128256513023,2.046098148891915,0.9227269669460343,-1.222637377288595,-2.1895670833984764,-10.0,0.0,0.0
3.226452905811623,2.0608910063618913,0.7396428734988068,-1.2700797793381333,-2.3721201024769174,-9.999999999999487,0.0,0.0
3.2464929859719436,2.0720033472007264,0.5556170419417503,-1.3215005475608714,-2.571038411136906,-10.0,0.0,0.0
3.2665330661322645,2.0794113525453533,0.3704002672313308,-1.377245931778453,-2.7872692108790744,-10.0,0.0,0.0
3.286573146292585,2.083085383561445,0.1837015508045792,-1.4376812781494315,-3.0217673185489287,-9.999999999999748,0.0,0.0
3.306613226452906,2.082989111896885,-0.0048135832280016,-1.5031908296434917,-3.275477574703006,-10.0,0.0,0.0
3.3266533066132262,2.079078670770744,-0.19552205630705805,-1.5741770324029354,-3.5493101379721836,-9.999999999999991,0.0,0.0
