time,x,x_dot,theta,theta_dot,u,x_ref,theta_ref
0.0,1.1437292341699723,0.010234391160063042,-0.10244472121862472,-0.03310935870441438,3.539687699205062,0.0,0.0
0.02004008016032064,1.145343279874236,0.08070228521318501,-0.10580949433930593,-0.1682386560340608,3.0284872688792728,0.0,0.0
0.04008016032064128,1.1481681774243504,0.1412448775057219,-0.11159987106694846,-0.2895188363821266,2.458920846569436,0.0,0.0
0.06012024048096192,1.1519832535464871,0.1907538061068307,-0.11951979109037476,-0.3959960011713151,1.8542619705013408,0.0,0.0
0.08016032064128256,1.1565546933811082,0.22857199173105047,-0.12926612570983395,-0.48731673097295913,1.2264445173280336,0.0,0.0
0.1002004008016032,1.1616401430757164,0.25427248473040565,-0.14053406114361383,-0.5633967716889943,0.5806099264988422,0.0,0.0
0.12024048096192384,1.1669906680892104,0.26752625067470437,-0.15301855222544272,-0.6242245540914442,-0.0785026941650726,0.0,0.0
0.1402805611222445,1.1723525604965275,0.26809462036585985,-0.1664155668102051,-0.6698507292381193,-0.7458639322401642,0.0,0.0
0.16032064128256512,1.177469264135118,0.2558351819295295,-0.1804235106093908,-0.7003971899592843,-1.4159973934627632,0.0,0.0
0.18036072144288576,1.1820834753019716,0.2307105583426738,-0.19474489845475315,-0.7160693922681173,-2.0829016907048366,0.0,0.0
0.2004008016032064,1.185939444585865,0.1927984641946714,-0.2090882848388571,-0.7171693192051979,-2.740020566510677,0.0,0.0
0.22044088176352705,1.1887854860063203,0.14230207102275733,-0.22317043677880832,-0.7041075969975605,-3.3802681045575564,0.0,0.0
0.24048096192384769,1.1903766783873164,0.07955961904981176,-0.2367187045229164,-0.6774133872054048,-3.996117543956041,0.0,0.0
0.2605210420841683,1.1904777202191457,0.005052091591465413,-0.24947351966740974,-0.6377407572246672,-4.579758778051607,0.0,0.0
0.280561122244489,1.1888658744044627,-0.08059229073414782,-0.26119092730866045,-0.585870382062535,-5.123323339120227,0.0,0.0
0.3006012024048096,1.1853339154915183,-0.17659794564721493,-0.27164504106944004,-0.5227056880389808,-5.619166758490267,0.0,0.0
0.32064128256513025,1.1796929724332972,-0.28204715291105564,-0.28063029988689286,-0.44926294087264046,-6.060187696752785,0.0,0.0
0.3406813627254509,1.1717751482783743,-0.39589120774614134,-0.28796340613447247,-0.36665531237898064,-6.440153368561026,0.0,0.0
0.3607214428857715,1.161435797934135,-0.516967517211966,-0.29348483807617554,-0.27607159708515355,-6.753994479412746,0.0,0.0
0.3807615230460922,1.1485553583465509,-0.6440219793792108,-0.2970598562362581,-0.17875090800412596,-6.998032775039907,0.0,0.0
0.4008016032064128,1.1330406519327265,-0.7757353206912176,-0.2985789609986655,-0.07595523812037171,-7.170111624024069,0.0,0.0
0.42084168336673344,1.1148256209915577,-0.9107515470584403,-0.2979578030673681,0.031057896564871762,-7.269613644626947,0.0,0.0
0.4408817635270541,1.0938714929677427,-1.047706401190747,-0.29513659306566786,0.14106050008501186,-7.297365911678921,0.0,0.0
0.4609218436873747,1.0701664177333192,-1.1852537617211674,-0.2900790951516057,0.25287489570310917,-7.255448970342081,0.0,0.0
0.48096192384769537,1.0437246527609676,-1.3220882486175807,-0.2827713169874644,0.36538890820706404,-7.146937405865659,0.0,0.0
0.501002004008016,1.0145853960875786,-1.4569628336694558,-0.273220021917278,0.4775647535093188,-6.975605004795296,0.0,0.0
0.5210420841683366,0.9828113785373596,-1.5887008775109495,-0.26145118865280603,0.5884416632235996,-6.74562668515054,0.0,0.0
0.5410821643286573,0.9484873262859629,-1.7162026125698329,-0.24750853121869382,0.6971328717056109,-6.461304045770492,0.0,0.0
0.561122244488978,0.91171839460488,-1.838446584054141,-0.23145217064510265,0.8028180286795578,-6.1268336205311,0.0,0.0
0.5811623246492986,0.8726286564796277,-1.954486906262614,-0.21335752353428922,0.9047323555406723,-5.746128755872519,0.0,0.0
0.6012024048096192,0.8313597087963667,-2.0634473841630503,-0.19331444439097015,1.002153957165954,-5.322698938984844,0.0,0.0
0.6212424849699398,0.788069436558996,-2.1645136118685375,-0.17142663094037347,1.0943906725298334,-4.859585140433133,0.0,0.0
0.6412825651302605,0.7429309540651218,-2.2569241246937093,-0.14781127616314754,1.1807677388612965,-4.359346424778649,0.0,0.0
0.6613226452905812,0.6961317223548805,-2.3399615855120612,-0.12259892836507237,1.2606173899037585,-3.824091436406346,0.0,0.0
0.6813627254509018,0.6478728251817193,-2.4129448586580615,-0.09593350175743778,1.333271330381729,-3.2555478996886107,0.0,0.0
0.7014028056112224,0.5983683714661481,-2.4752226857785624,-0.06797236507483607,1.3980568341300854,-2.6551634746400277,0.0,0.0
0.721442885771543,0.5478449806918674,-2.526169538714033,-0.038886425059096744,1.4542970007869664,-2.024231765242112,0.0,0.0
0.7414829659318637,0.4965412989218147,-2.5651840885026336,-0.008860115666680289,1.5013154696208226,-1.364037706226711,0.0,0.0
0.7615230460921844,0.4447074869880114,-2.5916905966901655,0.02190879683405459,1.538445625036744,-0.6760168176847813,0.0,0.0
0.781563126252505,0.3926046189082638,-2.605143403987378,0.05320967763794342,1.5650440401944412,0.03807711423304483,0.0,0.0
0.8016032064128256,0.3405039276742841,-2.6050345616989854,0.08481982978740304,1.5805076074729818,0.7760014620629134,0.0,0.0
0.8216432865731462,0.28868583717345064,-2.590904525041673,0.11650570024771123,1.5842935230154092,1.5348570338290801,0.0,0.0
0.8416833667334669,0.23743872302276628,-2.5623557075342185,0.14802452145845252,1.5759410605370647,2.3109293170304923,0.0,0.0
0.8617234468937875,0.1870573513393392,-2.519068584171353,0.17912639986030449,1.5550939200925984,3.099545475718789,0.0,0.0
0.8817635270541082,0.13784095282645709,-2.4608199256441052,0.2095568377193296,1.5215218929512555,3.8949551446860102,0.0,0.0
0.9018036072144289,0.09009090011116863,-2.3875026357644225,0.23905965062115683,1.4751406450913624,4.690245282854847,0.0,0.0
0.9218436873747494,0.044107969545067544,-2.2991465283050543,0.2673802218493745,1.4160285614108814,5.477302796933132,0.0,0.0
0.9418837675350701,0.00018918578298546956,-2.1959391881041035,0.2942690169598047,1.34443975552151,6.246843274439033,0.0,0.0
0.9619238476953907,-0.04137572988963435,-2.078245783630991,0.31948526623526885,1.2608124637732094,6.988528405526246,0.0,0.0
0.9819639278557114,-0.08030825654245387,-1.9466263326409756,0.3428007074706236,1.1657720617677372,7.691197405443239,0.0,0.0
1.002004008016032,-0.11634522632186284,-1.8018484889704482,0.3640032641849994,1.0601278357187924,8.343232708766454,0.0,0.0
1.0220440881763526,-0.14924309749640047,-1.6448935587268816,0.3829005148365321,0.9448625325766361,8.933066074041584,0.0,0.0
1.0420841683366733,-0.17878216421341772,-1.476953335850863,0.3993227896163254,0.8211137389896636,9.449805144578162,0.0,0.0
1.062124248496994,-0.2047704781156608,-1.299415695112153,0.41312571980486035,0.6901465094267478,9.883920764490309,0.0,0.0
1.0821643286573146,-0.22704723723436435,-1.113837955935178,0.42419207293593814,0.5533176565538882,9.999999999999945,0.0,0.0
1.1022044088176353,-0.2455732566705463,-0.9263009718090975,0.43255275830711626,0.41803426855890513,9.999999999713395,0.0,0.0
1.122244488977956,-0.26035281309683345,-0.7389778213143572,0.43827781415046996,0.2862527921676848,9.999999999999881,0.0,0.0
1.1422845691382766,-0.27138887492748337,-0.551803091532496,0.4414153346735877,0.15687602615588664,9.99999999999999,0.0,0.0
1.1623246492985972,-0.2786831279995005,-0.3647126536008569,0.4419917840499622,0.028822468818724967,9.99999999999999,0.0,0.0
1.1823647294589177,-0.28223599165597646,-0.17764318282379868,0.4400121750143689,-0.09898045177966577,9.99999999999999,0.0,0.0
1.2024048096192383,-0.28204662381522366,0.009468392037640855,0.4354601064440025,-0.22760342851831902,9.999999999999988,0.0,0.0
1.222444889779559,-0.2781129146559956,0.1966854579614037,0.4282976588181575,-0.35812238129225077,9.99999999999997,0.0,0.0
1.2424849699398797,-0.2704314695372781,0.3840722559358748,0.41846515077656893,-0.4916254020794305,9.999999998914516,0.0,0.0
1.2625250501002003,-0.2589975828429722,0.5716943347152956,0.4058807647525601,-0.6292193012004422,9.961890226414525,0.0,0.0
1.282565130260521,-0.24381990956288394,0.758883664004413,0.3904603066386481,-0.7710229056955985,9.50104485398571,0.0,0.0
1.3026052104208417,-0.2250690038645448,0.9375452849169577,0.3723231234447526,-0.9068591596947752,9.006901418156703,0.0,0.0
1.3226452905811623,-0.20292747174639642,1.1070766059074186,0.35158911659518466,-1.0367003424783976,8.469668146185418,0.0,0.0
1.342685370741483,-0.17759399118388486,1.2666740281255782,0.32838663733781415,-1.160123962868525,7.894924848431578,0.0,0.0
1.3627254509018036,-0.1492813998220664,1.415629568090923,0.3028521332736328,-1.2767252032090668,7.2862827712264036,0.0,0.0
1.3827655310621243,-0.118215530448518,1.55329346867742,0.27513070584776445,-1.3860713712934167,6.64617073229204,0.0,0.0
1.4028056112224447,-0.08463448500626779,1.6790522721125105,0.2453771148714209,-1.4876795488171783,5.9759645322353325,0.0,0.0
1.4228456913827654,-0.0487882913650043,1.792309682063174,0.21375712650640666,-1.5809994182507106,5.276173774608092,0.0,0.0
1.442885771543086,-0.010938864469406728,1.8924713447798787,0.18044907334345126,-1.66540265814777,4.546655033334542,0.0,0.0
1.4629258517034067,0.02863981730515905,1.978934088728289,0.14564548060783208,-1.7401796367809588,3.7868452548579055,0.0,0.0
1.4829659318637274,0.06966141799203256,2.0510800343436753,0.10955460046591958,-1.804544007095625,2.996011570635608,0.0,0.0
1.503006012024048,0.11182693560412799,2.1082758806047717,0.07240168878413843,-1.8576455840890578,2.17351452635598,0.0,0.0
1.5230460921843687,0.15482448690920084,2.149877565253642,0.03442985818995403,-1.8985915297092195,1.3190814748069877,0.0,0.0
1.5430861723446894,0.19832929418796336,2.1752403639381264,-0.004099649308440596,-1.9264753749197314,0.43308598227997797,0.0,0.0
1.56312625250501,0.24200398093113623,2.183734337158643,-0.04290790551453088,-1.940412810304514,-0.48317193034695216,0.0,0.0
1.5831663326653307,0.2854992782116717,2.1747648640267747,-0.08169955664497551,-1.9395825565222315,-1.4271907133538027,0.0,0.0
1.6032064128256511,0.3284552350011653,2.1477978394746793,-0.12016495859099227,-1.923270097300838,-2.3950040154675567,0.0,0.0
1.6232464929859718,0.3705030145430137,2.1023889770924207,-0.15798319336527517,-1.8909117387141452,-3.3809368737073258,0.0,0.0
1.6432865731462925,0.4112673456963347,2.038216557666051,-0.19482592201674914,-1.842136432573699,-4.377391728667234,0.0,0.0
1.6633266533066131,0.45036968298820035,1.95511686459328,-0.23036198350456127,-1.7768030743906058,-5.374680882574946,0.0,0.0
1.6833667334669338,0.48743211049393587,1.853121375286776,-0.264262612597417,-1.6950314546427863,-6.360933948132313,0.0,0.0
1.7034068136272544,0.5220819985947729,1.7324944050418492,-0.29620712238100866,-1.5972254891795832,-7.322125859775964,0.0,0.0
1.723446893787575,0.5539573826872222,1.5937692046224623,-0.3258888731630592,-1.484087539102528,-8.242292264787038,0.0,0.0
1.7434869739478958,0.5827129704556641,1.4377793884220922,-0.35302131923288,-1.3566223034910403,-9.10400955849031,0.0,0.0
1.7635270541082164,0.6080265945101091,1.2656812027222504,-0.3773438804238398,-1.2161280595479915,-9.889201310044893,0.0,0.0
1.783567134268537,0.6296058147743123,1.078961013210159,-0.3986273283767554,-1.0641723976457802,-9.999999997108958,0.0,0.0
1.8036072144288577,0.6474182316148734,0.8906208420280585,-0.41698774781736053,-0.9180209720302566,-9.999999999999988,0.0,0.0
1.8236472945891782,0.6614729419087675,0.7027355146947019,-0.43257776636736944,-0.7795009275004465,-9.999999999999995,0.0,0.0
1.8436873747494988,0.6717777031738945,0.5152380632563541,-0.4455276032787684,-0.6474918455699477,-9.999999999999995,0.0,0.0
1.8637274549098195,0.6783389754320974,0.3280636129101442,-0.4559458209430311,-0.5209108832131366,-9.999999999999996,0.0,0.0
1.8837675350701402,0.6811619679652696,0.14114962665861217,-0.46392000549721807,-0.39870922770934814,-9.99999999999945,0.0,0.0
1.9038076152304608,0.680250684408711,-0.0455641778279319,-0.4695173494539126,-0.27986719783472686,-9.999999999969555,0.0,0.0
1.9238476953907815,0.6756079617638013,-0.2321361322454813,-0.47278511816653507,-0.1633884356311233,-9.999999999999543,0.0,0.0
1.9438877755511021,0.6672355004416755,-0.4186230661062954,-0.47375098829790746,-0.04829350656861957,-9.999999999999822,0.0,0.0
1.9639278557114228,0.6551338835494295,-0.6050808446123016,-0.4724232510369408,0.06638686304833462,-9.999999999999767,0.0,0.0
1.9839679358717435,0.6393025844440894,-0.7915649552670023,-0.46879087621392873,0.18161874115060206,-9.999999999993795,0.0,0.0
2.004008016032064,0.6197399622280236,-0.97813111080329,-0.4628234362096399,0.29837200021444166,-9.99999999999771,0.0,0.0
2.024048096192385,0.5964432454471977,-1.1648358390412965,-0.4544708910861359,0.41762725617519797,-9.999999999999918,0.0,0.0
2.0440881763527052,0.5694085048804388,-1.3517370283379435,-0.44366323911781363,0.5403825984161131,-9.999999999977609,0.0,0.0
2.064128256513026,0.5386306170762261,-1.538894390210639,-0.4303100403167324,0.6676599400540595,-9.999999999971173,0.0,0.0
2.0841683366733466,0.5041032213186462,-1.7263697878789965,-0.4142998251312751,0.8005107592728647,-9.999999999999996,0.0,0.0
2.1042084168336674,0.4658186741227408,-1.914227359795268,-0.3954994068522595,0.940020913950782,-9.999999999999995,0.0,0.0
2.124248496993988,0.42376800733819786,-2.102533339227148,-0.37375312512064435,1.0873140865807565,-9.999999999999837,0.0,0.0
2.1442885771543083,0.3779408986833992,-2.291355432739933,-0.3488820601980501,1.2435532461297096,-9.999999999973628,0.0,0.0
2.164328657314629,0.3283256672840592,-2.4807615699669987,-0.3206832744206214,1.4099392888714366,-9.999999772572794,0.0,0.0
2.1843687374749496,0.2749093119181278,-2.67081776829657,-0.28892915987748835,1.5877057271566513,-9.80083620087218,0.0,0.0
2.2044088176352705,0.2177548760265186,-2.857721794580458,-0.25347801745128,1.7725571213104163,-8.888411707486876,0.0,0.0
2.224448897795591,0.15720178899125054,-3.0276543517634043,-0.21456850151329282,1.9454757968993592,-7.940642776272867,0.0,0.0
2.244488977955912,0.09360405832920612,-3.179886533102221,-0.17245075724085496,2.1058872136218922,-6.9482072813636035,0.0,0.0
2.2645290581162323,0.027334317798152902,-3.3134870265526613,-0.12739527633521558,2.252774045281968,-5.904956899550476,0.0,0.0
2.284569138276553,-0.04121346017628977,-3.4273888987221337,-0.07969914049605806,2.3848067919578764,-4.801921524677039,0.0,0.0
2.3046092184368736,-0.11162029794696747,-3.5203418885338853,-0.029692845603646087,2.5003147446205984,-3.629500013294081,0.0,0.0
2.3246492985971945,-0.18343848550090663,-3.5909093776969585,0.022253759807067272,2.597330270535668,-2.3779057145884552,0.0,0.0
2.344689378757515,-0.25618800785257,-3.637476117583169,0.07572690872799345,2.6736574460463087,-1.0392828810263126,0.0,0.0
2.3647294589178354,-0.32935398247540587,-3.6582987311417923,0.13026712763303602,2.7270109452521285,0.39035768371359936,0.0,0.0
2.3847695390781563,-0.40238586516560354,-3.6515941345098843,0.18537136650995006,2.7552119438457017,1.916252032095482,0.0,0.0
2.4048096192384767,-0.47469639448045176,-3.615526465742411,0.24049585206458463,2.7562242777317283,3.5386311973706555,0.0,0.0
2.4248496993987976,-0.545662637359517,-3.548312143953261,0.29506281259836203,2.7283480266888693,5.252855368781869,0.0,0.0
2.444889779559118,-0.6146289617000366,-3.4483162170259782,0.3484701668614626,2.6703677131550276,7.049732665601027,0.0,0.0
2.464929859719439,-0.6809116604791189,-3.3141349389541186,0.4001029227890929,2.581637796381515,8.914413603670397,0.0,0.0
2.4849699398797593,-0.7438054975902733,-3.1446918555577215,0.4493456910315641,2.4621384121235588,9.999999999995845,0.0,0.0
2.50501002004008,-0.8029101235638719,-2.9552312986799354,0.4960246013427686,2.3339455155602247,9.999999999697682,0.0,0.0
2.5250501002004007,-0.8582443329489488,-2.766710469253839,0.5405293390381656,2.225236884769851,9.999999999999885,0.0,0.0
2.5450901803607215,-0.9098257031069826,-2.579068507901695,0.5832342589714471,2.1352459966640747,10.0,0.0,0.0
2.565130260521042,-0.9576704536189588,-2.3922375255988073,0.6244999944544088,2.0632867741480867,10.0,0.0,0.0
2.5851703406813624,-1.001793376380859,-2.206146138095015,0.6646753684509643,2.008768699827775,10.0,0.0,0.0
2.6052104208416833,-1.0422078044371819,-2.0207214028161373,0.7040994882201417,1.9712059884588713,10.0,0.0,0.0
2.6252505010020037,-1.078925595338967,-1.8358895450892514,0.743103938463171,1.9502225121514676,9.999999999999998,0.0,0.0
2.6452905811623246,-1.1119571104480173,-1.65157575545252,0.7820150130421011,1.9455537289465044,10.0,0.0,0.0
2.665330661322645,-1.141311175516527,-1.4677032534254897,0.8211559431393701,1.9570465048634529,10.0,0.0,0.0
2.685370741482966,-1.1669950104214697,-1.2841917452471305,0.8608490918685474,1.9846574364588663,9.99999999999999,0.0,0.0
2.7054108216432864,-1.1890141174614743,-1.1009553520002304,0.9014180931468251,2.028450063913883,10.0,0.0,0.0
2.7254509018036073,-1.2073721184297028,-0.9179000484114279,0.943189917170674,2.088591201192445,9.999999999999668,0.0,0.0
2.7454909819639277,-1.222070531035801,-0.7349206303049122,0.9864968469379509,2.1653464883638462,9.999999999999966,0.0,0.0
2.7655310621242486,-1.2331084754391857,-0.5518972201692325,1.0316783505693445,2.259075181569684,10.0,0.0,0.0
2.785571142284569,-1.2404823019782605,-0.36869132695373974,1.0790828331423223,2.370224128648887,9.999999999998964,0.0,0.0
2.8056112224448895,-1.2441851320002033,-0.18514150109714644,1.129069249584214,2.4993208220945915,10.0,0.0,0.0
2.8256513026052104,-1.2442063054789114,-0.0010586739354040697,1.1820085567931296,2.646965360445774,10.0,0.0,0.0
2.845691382765531,-1.2405307324677992,0.18377865055560655,1.238284977996904,2.81382106018872,10.0,0.0,0.0
2.8657314629258517,-1.233138151189223,0.3696290639288151,1.2982970440594017,3.0006033031248864,9.999999999999998,0.0,0.0
2.885771543086172,-1.2220023048131934,0.5567923188014846,1.3624583623573678,3.208065914898306,9.999999999999984,0.0,0.0
2.905811623246493,-1.2070900631977608,0.745612080771633,1.4311980393342096,3.4369838488420936,9.999999999999254,0.0,0.0
2.9258517034068134,-1.1883605370140062,0.9364763091877254,1.50496064025095,3.6881300458370245,9.999999999999998,0.0,0.0
2.9458917835671343,-1.1657642623417819,1.1298137336112124,1.5842054971333301,3.9622428441190003,9.99999999999999,0.0,0.0
2.9659318637274548,-1.1392425773057104,1.3260842518035767,1.6694050560839013,4.259977947528554,9.999999999999815,0.0,0.0
2.9859719438877756,-1.1087273726141855,1.5257602345762495,1.761041764376545,4.58183541463219,10.0,0.0,0.0
3.006012024048096,-1.0741414791310298,1.7292946741577848,1.859602707521315,4.928047157238506,9.999999999999758,0.0,0.0
3.0260521042084165,-1.0354000605113554,1.937070930983722,1.965570789849474,5.298404116407949,9.999999999999067,0.0,0.0
3.0460921843687374,-0.9924135043907738,2.1493278060290772,2.0794107021433264,5.691995614692608,0.6421797705565417,0.0,0.0
3.066132264529058,-0.9485511647721637,2.1931169809305024,2.199022434365615,5.9805866111144335,9.999999999999996,0.0,0.0
3.0861723446893787,-0.900295910646032,2.4127627063065873,2.3272587583822086,6.4118162008296835,-10.0,0.0,0.0
3.106212424849699,-0.8550982171112835,2.259884676737421,2.456622868017496,6.468205481764367,9.80578118248841,0.0,0.0
3.12625250501002,-0.8055446596073339,2.4776778751974815,2.594761494235213,6.906931310885833,-9.999999999998995,0.0,0.0
3.1462925851703405,-0.759218247077359,2.3163206264987473,2.731823466611462,6.853098618812444,2.4497946665999937,0.0,0.0
3.1663326653306614,-0.7114824062290112,2.386792042417392,2.873164461233333,7.067049731093558,-9.999999999999998,0.0,0.0
3.186372745490982,-0.6672988154050364,2.2091795411987376,3.010929601922059,6.8882570344362986,-4.185281779771537,0.0,0.0
3.2064128256513023,-0.624588952703648,2.1354931350694195,3.147269999031352,6.817019855464661,-10.0,0.0,0.0
3.226452905811623,-0.5857881165315796,1.9400418086034208,3.2777172514475255,6.522362620808685,-9.774039005238496,0.0,0.0
3.2464929859719436,-0.5509472103912038,1.7420453070187896,3.401485787939364,6.18842682459192,-9.99999999999999,0.0,0.0
