time,x,x_dot,theta,theta_dot,u,x_ref,theta_ref
0.0,-0.8676677693286576,0.0820501946544139,0.12772596749527027,-0.04149482507184361,-1.1276532857075061,0.0,0.0
0.02004008016032064,-0.8665024506049324,0.05826593618626183,0.12835186488317607,0.03129486939528958,-0.7946691598319648,0.0,0.0
0.04008016032064128,-0.8656832031189005,0.04096237430159317,0.13024444584915648,0.0946290482990201,-0.4316277415847765,0.0,0.0
0.06012024048096192,-0.8650690245120384,0.030708930343104412,0.13320503123399136,0.1480292692417431,-0.05943110603095442,0.0,0.0
0.08016032064128256,-0.8645156337272134,0.02766953924124886,0.1370363777506336,0.19156732583211228,0.31718793115091826,0.0,0.0
0.1002004008016032,-0.8638772758590333,0.03191789340900604,0.14154429994080286,0.22539610950846312,0.6945864767643746,0.0,0.0
0.12024048096192384,-0.8630081003988173,0.04345877301080418,0.14653865839217134,0.24971792256842396,1.0691241395783302,0.0,0.0
0.1402805611222445,-0.8617635370650293,0.06222816668939897,0.1518343484262889,0.2647845017058787,1.4371302809633952,0.0,0.0
0.16032064128256512,-0.8600016819944135,0.08809275353079102,0.1572523109582567,0.27089812659838997,1.7949222872657107,0.0,0.0
0.18036072144288576,-0.8575846870217496,0.12084974863319703,0.16262055754724522,0.2684123294494261,2.13883691845663,0.0,0.0
0.2004008016032064,-0.854380139684389,0.16022736686803382,0.1677751949672523,0.25773187100035394,2.465272957313374,0.0,0.0
0.22044088176352705,-0.8502624173314973,0.20588611764458487,0.17256142981319314,0.23931174229704283,2.7707436623816166,0.0,0.0
0.24048096192384769,-0.8451139951544118,0.2574211088542791,0.17683453030510027,0.2136550245953569,3.051936498602754,0.0,0.0
0.2605210420841683,-0.8388266854413572,0.31436548565272826,0.18046072082951392,0.1813095262206828,3.3057766552867704,0.0,0.0
0.280561122244489,-0.8313027842235274,0.37619506089148974,0.18331798504412303,0.14286321073045477,3.5294901383623385,0.0,0.0
0.3006012024048096,-0.8224561019520286,0.4423341135749439,0.1852967556066559,0.09893852812664383,3.720661872710428,0.0,0.0
0.32064128256513025,-0.8122128570183508,0.5121622466838912,0.18630047263704075,0.050185851519242514,3.8772843667903496,0.0,0.0
0.3406813627254509,-0.8005124147249482,0.58502211467013,0.1862459985670302,-0.002723703500528016,3.997793109705126,0.0,0.0
0.3607214428857715,-0.7873078594662591,0.6602277629344528,0.18506388359370768,-0.059105748666125515,4.081085944972009,0.0,0.0
0.3807615230460922,-0.772566393971977,0.7370732747141056,0.18269848293321805,-0.11827003302448116,4.126525071305458,0.0,0.0
0.4008016032064128,-0.7562695659583476,0.8148414006814682,0.17910793381827367,-0.17952745574721882,4.1339218756381815,0.0,0.0
0.42084168336673344,-0.7384133288499339,0.8928118554206804,0.17426400607600445,-0.24219638711346142,4.10350630141185,0.0,0.0
0.4408817635270541,-0.7190079488250788,0.9702690012427583,0.1681518446453515,-0.30560807153264835,4.03588370714837,0.0,0.0
0.4609218436873747,-0.6980777748540311,1.0465086985523855,0.1607696251928558,-0.369110972624785,3.9319830398443836,0.0,0.0
0.48096192384769537,-0.6756608913377401,1.1208441758145506,0.152128144903659,-0.432074014459839,3.7930005693819266,0.0,0.0
0.501002004008016,-0.6518086742850523,1.1926108526343908,0.14225036959596232,-0.49388876538483323,3.6203434115546576,0.0,0.0
0.5210420841683366,-0.62658527171761,1.2611701283721146,0.1311709557349784,-0.5539706930491973,3.4155766756032735,0.0,0.0
0.5410821643286573,-0.6000670273332714,1.3259122192169297,0.11893576203399434,-0.6117596850492024,3.180377410068134,0.0,0.0
0.561122244488978,-0.5723418636563158,1.3862581838477848,0.10560136052835362,-0.6667200752820358,2.916497703105658,0.0,0.0
0.5811623246492986,-0.5435086372769016,1.4416613189707084,0.09123455172447302,-0.7183404401940295,2.625738424896981,0.0,0.0
0.6012024048096192,-0.5136764746701673,1.4916081303367128,0.07591188308324116,-0.7661334320615929,2.309934262536263,0.0,0.0
0.6212424849699398,-0.4829640928098121,1.5356190930177607,0.059719165082912126,-0.809635900016452,1.9709499453400399,0.0,0.0
0.6412825651302605,-0.4514991046408173,1.5732494084497428,0.04275097475730902,-0.8484095162801555,1.610686917274712,0.0,0.0
0.6613226452905812,-0.41941730569584096,1.6040899472488148,0.025110133197331956,-0.882042077998853,1.2310991881423132,0.0,0.0
0.6813627254509018,-0.3868619349275155,1.6277685384162708,0.006907141249433393,-0.9101495973949281,0.8342166763668827,0.0,0.0
0.7014028056112224,-0.3539829003376295,1.6439517294942998,-0.011740443311699909,-0.9323792280566651,0.4221740271958665,0.0,0.0
0.721442885771543,-0.3209359583273026,1.6523471005163461,-0.030708703444213434,-0.9484130066256762,-0.0027573677955661235,0.0,0.0
0.7414829659318637,-0.2878818349488098,1.6527061689246403,-0.0498681498565082,-0.9579723206147382,-0.4381366258211197,0.0,0.0
0.7615230460921844,-0.25498527745939437,1.6448278744707734,-0.06908460882421971,-0.9608229483855756,-0.8813225350027074,0.0,0.0
0.781563126252505,-0.2224140257850596,1.6285625837167386,-0.08822021802597188,-0.956780460087608,-1.3294473690351651,0.0,0.0
0.8016032064128256,-0.19033769570049086,1.603816504228437,-0.10713453246338211,-0.9457157218705121,-1.7793981628424695,0.0,0.0
0.8216432865731462,-0.15892656870083643,1.570556349982722,-0.12568573671332492,-0.9275602124971407,-2.227808251214593,0.0,0.0
0.8416833667334669,-0.12835028763867748,1.528814053107948,-0.1437319535779898,-0.9023108432332436,-2.6710617616116914,0.0,0.0
0.8617234468937875,-0.09877646214945532,1.4786912744611076,-0.16113263296345007,-0.8700339692730132,-3.105313485826389,0.0,0.0
0.8817635270541082,-0.07036919356869514,1.4203634290380092,-0.17774999884215345,-0.8308682939351695,-3.5265260657713657,0.0,0.0
0.9018036072144289,-0.04328753526465849,1.3540829152018323,-0.19345052674466479,-0.7850263951255668,-3.9305256440559466,0.0,0.0
0.9218436873747494,-0.01768391078815356,1.2801812238252466,-0.20810641968520788,-0.7327946470271539,-4.313075991063887,0.0,0.0
0.9418837675350701,0.006297481419936298,1.199069610404493,-0.2215970470679556,-0.6745313691373865,-4.669969611536141,0.0,0.0
0.9619238476953907,0.028522242343072088,1.1112380461567894,-0.2338103092786554,-0.6106631105349891,-4.997132521577826,0.0,0.0
0.9819639278557114,0.04886728690635167,1.017252228163979,-0.24464389067935496,-0.5416790700349781,-5.290737442182474,0.0,0.0
1.002004008016032,0.0672222574259627,0.9177485259805516,-0.25400636590425973,-0.4681237612452395,-5.547318365756018,0.0,0.0
1.0220440881763526,0.08349079482437582,0.8134268699206559,-0.26181812891216943,-0.39058815039548506,-5.763878178465366,0.0,0.0
1.0420841683366733,0.09759162952810596,0.7050417351865071,-0.2680121212021945,-0.30969961450125333,-5.93798062334501,0.0,0.0
1.062124248496994,0.10945946013535149,0.5933915303622763,-0.2725343446809125,-0.22611117393590116,-6.0678186159478775,0.0,0.0
1.0821643286573146,0.11904559690324976,0.4793068383949135,-0.2753441552925354,-0.14049053058114688,-6.152252816963939,0.0,0.0
1.1022044088176353,0.12631835814703546,0.3636380621892853,-0.27641434480374627,-0.05350947556054117,-6.190817210290709,0.0,0.0
1.122244488977956,0.13126321971781163,0.24724307853880845,-0.2757310289975058,0.03416579031202542,-6.183691792800156,0.0,0.0
1.1422845691382766,0.1338827296083133,0.13097549452508317,-0.27329336988022224,0.12188295586417806,-6.131645796070559,0.0,0.0
1.1623246492985972,0.13419621023140535,0.015674031154602308,-0.26911316641277117,0.20901017337255426,-6.03595759755307,0.0,0.0
1.1823647294589177,0.13223927904947294,-0.09784655909662085,-0.26321435212038163,0.29494071461947646,-5.89831925604913,0.0,0.0
1.2024048096192383,0.1280632233871308,-0.20880278311710676,-0.2556324384954465,0.3790956812467588,-5.720734269699059,0.0,0.0
1.222444889779559,0.12173426722709764,-0.31644780800165817,-0.24641394054419796,0.46092489756242583,-5.50541677114476,0.0,0.0
1.2424849699398797,0.11333276674292415,-0.42007502420867443,-0.23561581561928815,0.539906246245491,-5.254699184062434,0.0,0.0
1.2625250501002003,0.10295236772617788,-0.5190199508373137,-0.22330493949862354,0.6155438060332313,-4.970953687772806,0.0,0.0
1.282565130260521,0.09069915255558096,-0.6126607585298464,-0.2095576352651054,0.6873652116759066,-4.656530991575915,0.0,0.0
1.3026052104208417,0.0766907976232778,-0.7004177466151585,-0.1944592616363499,0.7549186814377745,-4.313718163921206,0.0,0.0
1.3226452905811623,0.061055754834584045,-0.7817521394346874,-0.1781038586231427,0.8177701506603609,-3.9447157606229992,0.0,0.0
1.342685370741483,0.043932463492782466,-0.8561645670900789,-0.1605938402778256,0.8755009172658547,-3.5516333245420615,0.0,0.0
1.3627254509018036,0.02546859201011636,-0.9231935741333052,-0.14203971723043074,0.927706152369744,-3.1365014879050803,0.0,0.0
1.3827655310621243,0.0058203027705554,-0.982414461978048,-0.12255982600389176,0.9739945613269486,-2.7012983496986935,0.0,0.0
1.4028056112224447,-0.014848471673046718,-1.0334387221801058,-0.10228003797679702,1.0139894013547368,-2.2479874539266986,0.0,0.0
1.4228456913827654,-0.036366756916064794,-1.075914262150904,-0.08133341849101236,1.0473309742892334,-1.778564486747256,0.0,0.0
1.442885771543086,-0.05855728821768645,-1.1095265650810828,-0.05985980609845454,1.073680619627891,-1.2951096787485898,0.0,0.0
1.4629258517034067,-0.0812373054906775,-1.134000863649552,-0.03800528336619662,1.0927261366128957,-0.7998427965169614,0.0,0.0
1.4829659318637274,-0.10421941236285262,-1.1491053436087564,-0.01592151400202141,1.1041884682087606,-0.29517750787764485,0.0,0.0
1.503006012024048,-0.12731251894980616,-1.154655329347677,0.006235073772804231,1.107829388741282,0.21622820324577186,0.0,0.0
1.5230460921843687,-0.15032288574324879,-1.1505183396721312,0.028304270885209683,1.1034598556202726,0.7314290084783673,0.0,0.0
1.5430861723446894,-0.17305528252238436,-1.136619838956779,0.05012324326516951,1.0909486189979916,1.2471601244746267,0.0,0.0
1.56312625250501,-0.19531427146876532,-1.112949447319048,0.07152785598277875,1.0702306358804619,1.759819692146581,0.0,0.0
1.5831663326653307,-0.2169056177624254,-1.0795673146830043,0.09235415218988935,1.04131481035553,2.265469142616079,0.0,0.0
1.6032064128256511,-0.23763782394959335,-1.036610309358398,0.1124399638089082,1.0042905809509426,2.7598547685153756,0.0,0.0
1.6232464929859718,-0.25732377645029875,-0.9842976250352706,0.13162662180965148,0.9593329000371643,3.238453123969049,0.0,0.0
1.6432865731462925,-0.275782483961785,-0.9229353755743126,0.14976072577450353,0.906705198242602,3.696541837253096,0.0,0.0
1.6633266533066131,-0.2928408785909333,-0.8529197314574133,0.16669592575048242,0.8467599987989451,4.12929583057832,0.0,0.0
1.6833667334669338,-0.3083356418704747,-0.77473816397707,0.1822946646115302,0.7799369430523888,4.53190676621462,0.0,0.0
1.7034068136272544,-0.3221150101252528,-0.688968412738904,0.19642982681318816,0.7067581100828967,4.899720879130572,0.0,0.0
1.723446893787575,-0.3340405078618716,-0.5962748868309403,0.20898624002389213,0.6278206605351981,5.228387499266593,0.0,0.0
1.7434869739478958,-0.34398855492648994,-0.4974023532309154,0.21986198010411856,0.5437870040113214,5.514007987388522,0.0,0.0
1.7635270541082164,-0.35185189397646116,-0.39316695249856226,0.22896943752683324,0.4553728711357346,5.753273099407075,0.0,0.0
1.783567134268537,-0.357540789893361,-0.2844447958449934,0.23623611449621748,0.3633338484692124,5.94357651576676,0.0,0.0
1.8036072144288577,-0.3609839621656786,-0.17215861361587753,0.2416051361592491,0.26845108315158217,6.0830937645067795,0.0,0.0
1.8236472945891782,-0.3621292243942903,-0.057263111430586974,0.2450354753349793,0.1715169587865094,6.170818992461252,0.0,0.0
1.8436873747494988,-0.3609438207128158,0.05927018407372643,0.2465019066050411,0.07332156350308978,6.206556539686338,0.0,0.0
1.8637274549098195,-0.35741446541396943,0.17646776494231609,0.24599472071132217,-0.02535929468594693,6.190869264974907,0.0,0.0
1.8837675350701402,-0.351547107620982,0.29336788964937,0.24351924238589395,-0.12377391627141138,6.124990158758713,0.0,0.0
1.9038076152304608,-0.3433664557975826,0.4090325911699694,0.23909520277417529,-0.22120198058593366,6.010707200544713,0.0,0.0
1.9238476953907815,-0.3329153060505936,0.5225574873494503,0.2327560208672172,-0.3169590953479041,5.850233223525899,0.0,0.0
1.9438877755511021,-0.3202537229436997,0.633079155344695,0.2245480468341417,-0.4103987016537749,5.646072679685724,0.0,0.0
1.9639278557114228,-0.30545812191886207,0.73978005124188,0.21452981439902427,-0.5009116217558712,5.400895921702832,0.0,0.0
1.9839679358717435,-0.2886202989300818,0.8418911494390143,0.2027713403798639,-0.5879237009580183,5.117429404674527,0.0,0.0
2.004008016032064,-0.26984644638116767,0.9386926274457063,0.18935349832007156,-0.670892102989617,4.79836757896722,0.0,0.0
2.024048096192385,-0.2492561859150891,1.0295130233039287,0.17436748090986898,-0.7493008705101286,4.4463096441374415,0.0,0.0
2.0440881763527052,-0.22698163899779034,1.1137273458649386,0.1579143535996694,-0.8226563655099786,4.063722070570077,0.0,0.0
2.064128256513026,-0.2031665464159207,1.1907546290934816,0.14010469024251584,-0.8904831678576774,3.6529260252780427,0.0,0.0
2.0841683366733466,-0.17796543842645143,1.2600553994734622,0.1210582713648917,-0.9523209438812077,3.216107584722109,0.0,0.0
2.1042084168336674,-0.1515428488302034,1.3211294798124007,0.10090381718679721,-1.0077227089047243,2.7553478146520685,0.0,0.0
2.124248496993988,-0.12407255900231082,1.3735144913946298,0.07977872110405744,-1.0562548041369884,2.272669335364226,0.0,0.0
2.1442885771543083,-0.09573685208816998,1.416785345707042,0.05782874523568976,-1.0974987934183837,1.7700957505475516,0.0,0.0
2.164328657314629,-0.06672575326705124,1.4505549410559369,0.03520763799045937,-1.1310553622615198,1.249720195032435,0.0,0.0
2.1843687374749496,-0.03723622924914029,1.4744762008955474,0.012076634517450766,-1.15655017365043,0.7137791721596012,0.0,0.0
2.2044088176352705,-0.007471319027945508,1.488245511059739,-0.011396195611509612,-1.1736415064480188,0.16472775431561815,0.0,0.0
2.224448897795591,0.02236083163491419,1.4916075331429848,-0.03503678318482835,-1.1820293786659368,-0.394687917916246,0.0,0.0
2.244488977955912,0.052048057464331374,1.4843612914708593,-0.058666098107045775,-1.1814657461108715,-0.9613650910610837,0.0,0.0
2.2645290581162323,0.0813754044979217,1.4663673516795166,-0.08210140359154054,-1.1717652742247384,-1.5317902958872702,0.0,0.0
2.284569138276553,0.11012652109668863,1.4375558299383462,-0.10515772586211475,-1.15281611352871,-2.1020014292171627,0.0,0.0
2.3046092184368736,0.1380852189623935,1.3979348932852438,-0.12764952728234116,-1.1245900710113204,-2.667570984669637,0.0,0.0
2.3246492985971945,0.16503720563658847,1.3475993337097487,-0.1493925585248913,-1.087151562127507,-3.223615477314935,0.0,0.0
2.344689378757515,0.19077198009755936,1.2867387230485439,-0.17020585350709452,-1.0406647491101613,-3.764835871237196,0.0,0.0
2.3647294589178354,0.21508487182934347,1.2156445865892058,-0.18991381986787514,-0.9853983180390311,-4.285593015752246,0.0,0.0
2.3847695390781563,0.23777919140695816,1.1347159788807344,-0.20834836822118882,-0.9217274176656836,-4.780020431379437,0.0,0.0
2.4048096192384767,0.2586684477943128,1.0444628193677326,-0.22535101580152614,-0.8501323790168654,-5.242174008981398,0.0,0.0
2.4248496993987976,0.2775785751298924,0.9455063667789811,-0.2407748950521016,-0.7711939625287718,-5.6662142254150485,0.0,0.0
2.444889779559118,0.2943501011343064,0.8385763002206988,-0.2544865960097661,-0.6855850478832235,-6.0466116118091895,0.0,0.0
2.464929859719439,0.30884018208923053,0.7245040477462082,-0.26636777395428224,-0.5940588972258067,-6.3783611616820775,0.0,0.0
2.4849699398797593,0.3209244273521189,0.6042122631444198,-0.27631646157964235,-0.4974343812680059,-6.657187262120797,0.0,0.0
2.50501002004008,0.3304984409901705,0.47870068190258064,-0.28424803836707213,-0.3965788393714897,-6.879718843290391,0.0,0.0
2.5250501002004007,0.33747901994656415,0.3490289478196814,-0.29009582857283306,-0.29238951028804594,-7.043615768095529,0.0,0.0
2.5450901803607215,0.3418049666380048,0.21629733457203296,-0.2938113219515999,-0.18577466893834285,-7.1476322645181956,0.0,0.0
2.565130260521042,0.3434374972296705,0.08162652958328404,-0.29536403572010017,-0.07763568842501313,-7.191610718067344,0.0,0.0
2.5851703406813624,0.3423602522754521,-0.05386224771091952,-0.29474105945312706,0.031148813348656754,-7.17640791234537,0.0,0.0
2.6052104208416833,0.33857894075626827,-0.18906557595918952,-0.29194634373192907,0.1397357860598997,-7.1037640251592595,0.0,0.0
2.6252505010020037,0.33212066883986463,-0.322913595820183,-0.28699980618165105,0.2473268775139018,-6.976130720547504,0.0,0.0
2.6452905811623246,0.3230330187902925,-0.45438250247860745,-0.2799363338560108,0.35317361628201205,-6.796477613785688,0.0,0.0
2.665330661322645,0.31138295038796915,-0.582503420116169,-0.27080475876817994,0.4565787543915434,-6.568096211543106,0.0,0.0
2.685370741482966,0.297255597130512,-0.7063676628728597,-0.2596668747408102,0.5568942013684872,-6.2944177631738265,0.0,0.0
2.7054108216432864,0.28075302341515324,-0.8251286857679364,-0.24659655030855168,0.6535162216129252,-5.978857299683005,0.0,0.0
2.7254509018036073,0.2619929984249969,-0.9380012495078172,-0.23167897603228718,0.7458787138132252,-5.624691518238999,0.0,0.0
2.7454909819639277,0.24110782927004662,-1.0442584577475145,-0.21501006703415967,0.833445449906375,-5.234973906586274,0.0,0.0
2.7655310621242486,0.2182432816408126,-1.1432273814617004,-0.1966960242644566,0.9157021384851536,-4.812487082631335,0.0,0.0
2.785571142284569,0.1935576020725327,-1.2342839784139963,-0.17685304199463642,0.9921491134910092,-4.359729923029794,0.0,0.0
2.8056112224448895,0.16722064277617674,-1.3168479648177978,-0.15560713496493925,1.062295351484859,-3.8789356065714022,0.0,0.0
2.8256513026052104,0.13941307841249329,-1.3903782181841722,-0.13309404690982285,1.12565440275582,-3.372115999717641,0.0,0.0
2.845691382765531,0.11032569444861805,-1.454369198193762,-0.109459193103706,1.1817426903058426,-2.8411276134400336,0.0,0.0
2.8657314629258517,0.08015871895155906,-1.5083487748529494,-0.08485758332211801,1.2300804890793993,-2.287754427994904,0.0,0.0
2.885771543086172,0.04912116385485793,-1.5518777548350564,-0.05945366840257276,1.2701957459772626,-1.7138030320332467,0.0,0.0
2.905811623246493,0.017430137864403554,-1.5845512995227187,-0.033421053612703644,1.3016307394934559,-1.1212056351818869,0.0,0.0
2.9258517034068134,-0.014689908776435792,-1.6060023320419674,-0.006942025437227998,1.3239514087737823,-0.5121265216060238,0.0,0.0
2.9458917835671343,-0.04700804747821985,-1.6159069350892028,0.01979315479314719,1.3367590115187593,0.11093260876801658,0.0,0.0
2.9659318637274548,-0.0792878804027333,-1.6139916462256727,0.04658722695612796,1.3397036081490383,0.7450332214090656,0.0,0.0
2.9859719438877756,-0.11128872964816927,-1.600042462271799,0.07323720151863838,1.332498728125521,1.3867116543533426,0.0,0.0
3.006012024048096,-0.14276703502772833,-1.5739152689779532,0.09953593082590043,1.3149364653631024,2.0319076856046463,0.0,0.0
3.0260521042084165,-0.17347798132967704,-1.535547315097435,0.12527397447242067,1.2869021823260125,2.6759163473789846,0.0,0.0
3.0460921843687374,-0.20317736631624436,-1.4849692493283657,0.15024173407115143,1.248387979936538,3.3133700795860523,0.0,0.0
3.066132264529058,-0.2316237089605764,-1.4223171322166028,0.17423181625815773,1.1995041093503147,3.9382588935137073,0.0,0.0
3.0861723446893787,-0.2585805834191628,-1.3478437229293194,0.19704156732233616,1.140487553208921,4.543996313447908,0.0,0.0
3.106212424849699,-0.28381914798543617,-1.2619282283136677,0.21847570889812098,1.071707078789241,5.123537921910236,0.0,0.0
3.12625250501002,-0.3071208200710632,-1.1650836042813522,0.23834899210143312,0.9936641601656062,5.669556663355925,0.0,0.0
3.1462925851703405,-0.3282800289878649,-1.0579604458400838,0.25648877789636004,0.9069892897463457,6.174674059461301,0.0,0.0
3.1663326653306614,-0.3471069596401205,-0.9413465326127793,0.27273744536404765,0.8124333733843804,6.6317390218473244,0.0,0.0
