time,x,x_dot,theta,theta_dot,u,x_ref,theta_ref
0.0,0.35098863466545716,0.06521323363976705,-0.15322248790110005,-0.024514078264862807,-2.3168737900146814,0.0,0.0
0.02004008016032064,0.3514334918824183,0.022242860848057495,-0.1533364233176219,-0.00569677082609292,-2.4657965762128384,0.0,0.0
0.04008016032064128,0.35096096198154003,-0.02362649504391417,-0.15298880127424508,0.017381102168841756,-2.557058060918838,0.0,0.0
0.06012024048096192,0.3495353900633001,-0.07127859591199782,-0.15212470534766365,0.04320479632907091,-2.6300652412555374,0.0,0.0
0.08016032064128256,0.34712807606254326,-0.1203657000378403,-0.1506964028508202,0.07141512484217223,-2.6839601446099093,0.0,0.0
0.1002004008016032,0.34371759332192986,-0.1705241370306704,-0.14866352369270902,0.10164395790555872,-2.7180731442077906,0.0,0.0
0.12024048096192384,0.33929003668867475,-0.22137783166275532,-0.14599318492268687,0.13351693850110713,-2.731928783699415,0.0,0.0
0.1402805611222445,0.3338391980929443,-0.2725419297865201,-0.14266005980789714,0.16665625573948595,-2.72524496530067,0.0,0.0
0.16032064128256512,0.3273666700706563,-0.32362640111440233,-0.13864639315735544,0.2006833325270848,-2.697928669737362,0.0,0.0
0.18036072144288576,0.31988187895228654,-0.3742395559184868,-0.13394196556998111,0.23522137936871568,-2.6500686222048175,0.0,0.0
0.2004008016032064,0.31140205053112086,-0.42399142105828436,-0.12854400999130258,0.26989777893392697,-2.5819254739938886,0.0,0.0
0.22044088176352705,0.3019521118946649,-0.4724969318227962,-0.1224570843813458,0.3043462804978393,-2.4939201801194044,0.0,0.0
0.24048096192384769,0.2915645337144513,-0.5193789090106818,-0.11569290441300442,0.33820899841706886,-2.3866213087317036,0.0,0.0
0.2605210420841683,0.28027911762603747,-0.5642708044206901,-0.10827013994890557,0.37113822320494255,-2.260732017251956,0.0,0.0
0.280561122244489,0.26814273339743067,-0.6068192114303391,-0.10021417862050314,0.40279806642012117,-2.1170772893094276,0.0,0.0
0.3006012024048096,0.2552090104388511,-0.6466861479289796,-0.09155685926033158,0.43286596800857813,-1.9565926079323748,0.0,0.0
0.32064128256513025,0.24153798762520015,-0.6835511406825461,-0.08233617688946854,0.46103411854315246,-1.7803128498352843,0.0,0.0
0.3406813627254509,0.22719572531789678,-0.7171131153651688,-0.07259596082415556,0.48701080326564833,-1.5893642462251838,0.0,0.0
0.3607214428857715,0.21225388230159145,-0.7470921508152665,-0.06238552586927855,0.5105217477438508,-1.3849573429047322,0.0,0.0
0.3807615230460922,0.19678926000753533,-0.7732311147028063,-0.0517592963419967,0.5313114763640926,-1.168381963536255,0.0,0.0
0.4008016032064128,0.1808833156793861,-0.7952972164074616,-0.0407764020051701,0.5491447168413299,-0.941003803175799,0.0,0.0
0.42084168336673344,0.16462164558222936,-0.813083504857836,-0.02950024465144531,0.5638078676862393,-0.7042623320906122,0.0,0.0
0.4408817635270541,0.14809343893653698,-0.8264103322846187,-0.017998033993666736,0.5751105328889285,-0.4596694385114438,0.0,0.0
0.4609218436873747,0.13139090306843007,-0.8351267934053458,-0.006340291787576396,0.582887110304517,-0.20880900042474188,0.0,0.0
0.48096192384769537,0.11460866000282202,-0.8391121532804025,0.00539967675425004,0.5869984270913218,0.046664849250906415,0.0,0.0
0.501002004008016,0.09784311532672385,-0.8382772338049082,0.017146343835401943,0.5873333540575952,0.30502934937865545,0.0,0.0
0.5210420841683366,0.08119180018528996,-0.8325657570716947,0.028822551400171453,0.5838103782384754,0.5644966767169006,0.0,0.0
0.5410821643286573,0.06475268808743011,-0.8219556048929926,0.04035013263402409,0.5763790616926316,0.8232195008186702,0.0,0.0
0.561122244488978,0.04862348900573885,-0.8064599540845627,0.051650559102409774,0.5650213234192845,1.0792991214016536,0.0,0.0
0.5811623246492986,0.03290092426506333,-0.7861282370337759,0.06264560861634527,0.5497524756967745,1.3307965867305218,0.0,0.0
0.6012024048096192,0.017679986846543153,-0.7610468709260089,0.07325804755474924,0.5306219469201987,1.5757470425488747,0.0,0.0
0.6212424849699398,0.003053192931017962,-0.7313396957762596,0.08341232011340104,0.5077136279325899,1.8121773782467523,0.0,0.0
0.6412825651302605,-0.010890168301663953,-0.6971680616340957,0.0930352358709981,0.48114578787985357,2.038127026166789,0.0,0.0
0.6613226452905812,-0.0240647784898324,-0.6587305094084223,0.1020566462416002,0.4510705185301046,2.2516715410073136,0.0,0.0
0.6813627254509018,-0.03639001844823708,-0.6162619979202343,0.11041009988769095,0.41767268230453736,2.4509483534260617,0.0,0.0
0.7014028056112224,-0.047790671288385905,-0.570032642007441,0.11803346705251537,0.3811683582412214,2.6341838729879488,0.0,0.0
0.721442885771543,-0.058197590137108804,-0.5203459424361448,0.12486952306833748,0.341802800791106,2.7997209315101244,0.0,0.0
0.7414829659318637,-0.0675483202834271,-0.46753650731591445,0.1308664820190664,0.29984794753644495,2.946045430070736,0.0,0.0
0.7615230460921844,-0.0757876659955611,-0.4119672856066997,0.1359784726643332,0.2555995322633401,3.0718110008363007,0.0,0.0
0.781563126252505,-0.08286819309060484,-0.35402635475218724,0.1401659502214482,0.20937387785575085,3.175860532334591,0.0,0.0
0.8016032064128256,-0.08875065958789533,-0.2941233248645246,0.14339603937693995,0.16150445777458686,3.2572435391665264,0.0,0.0
0.8216432865731462,-0.09340436837859561,-0.2326854395350146,0.14564280586050557,0.11233832417828091,3.3152285790396965,0.0,0.0
0.8416833667334669,-0.09680743771244145,-0.17015346669229175,0.14688745594234057,0.06223250409174995,3.3493102149983214,0.0,0.0
0.8617234468937875,-0.0989469873269981,-0.10697748072783235,0.1471184651815629,0.0115504619611164,3.3592103625761944,0.0,0.0
0.8817635270541082,-0.09981924009902145,-0.043612638601167805,0.14633163953201372,-0.039341282477458966,3.3448742177316073,0.0,0.0
0.9018036072144289,-0.09942954105227747,0.01948495233719881,0.14453011338855765,-0.0900763071728033,3.3064612973572376,0.0,0.0
0.9218436873747494,-0.0977922972913526,0.08186218804624354,0.14172429024239833,-0.14029115730796585,3.244332408336771,0.0,0.0
0.9418837675350701,-0.09493084384700089,0.1430726722175853,0.1379317322500731,-0.18962789961626075,3.1590335690374567,0.0,0.0
0.9619238476953907,-0.09087724144494429,0.20268012010282974,0.13317700518645278,-0.23773635318101632,3.0512780243972033,0.0,0.0
0.9819639278557114,-0.0856720128102426,0.2602614317350846,0.12749148496314217,-0.28427601116553075,2.9219275185987006,0.0,0.0
1.002004008016032,-0.0793638242917652,0.3154094259238704,0.12091313120019699,-0.32891768814725847,2.771973949628472,0.0,0.0
1.0220440881763526,-0.07200911935654729,0.36773524676089525,0.11348623230437697,-0.3713449447910006,2.602522247478674,0.0,0.0
1.0420841683366733,-0.06367170997502887,0.4168704690759211,0.10526112531260069,-0.4112553495888138,2.4147754052616324,0.0,0.0
1.062124248496994,-0.054422331062303736,0.4624689456362568,0.09629389235179651,-0.4483616480402086,2.210022230471742,0.0,0.0
1.0821643286573146,-0.04433816209791459,0.5042084482194575,0.08664603413530265,-0.4823929108246927,1.9896278165428165,0.0,0.0
1.1022044088176353,-0.033502319036363234,0.5417921530775678,0.07638411975751733,-0.5130957188892661,1.7550270445185119,0.0,0.0
1.122244488977956,-0.022003318518328485,0.5749500259017375,0.06557941094094427,-0.5402354408286524,1.5077208405130567,0.0,0.0
1.1422845691382766,-0.009934515421875902,0.6034401548226291,0.054307458122421326,-0.5635976409261473,1.2492747410672238,0.0,0.0
1.1623246492985972,0.0026064859839741838,0.6270500702925043,0.042647665385223174,-0.5829896368599075,0.9813200201317911,0.0,0.0
1.1823647294589177,0.0155184478841726,0.6455980950099207,0.03068282078311341,-0.5982422301054882,0.7055545639024698,0.0,0.0
1.2024048096192383,0.02869714212206105,0.6589347118944224,0.018498589789014416,-0.6092115497049497,0.4237454790095671,0.0,0.0
1.222444889779559,0.0420360216614023,0.6669439769670625,0.0061829695756140755,-0.615781010670017,0.1377306195029916,0.0,0.0
1.2424849699398797,0.055426920654553874,0.6695449496575787,-0.006174296668780955,-0.6178633122197515,-0.15058106907951813,0.0,0.0
1.2625250501002003,0.06876078289598267,0.6666931120714401,-0.018482344811408175,-0.6154024071313611,-0.43921133865936135,0.0,0.0
1.282565130260521,0.08192841752881076,0.6583817316414048,-0.030649851965540084,-0.6083753577065955,-0.7261173216765183,0.0,0.0
1.3026052104208417,0.09482127969962245,0.6446431085405848,-0.04258573168620119,-0.5967939860330551,-1.0091997546228442,0.0,0.0
1.3226452905811623,0.10733227247382666,0.6255496387102107,-0.05419985615603995,-0.5807062234919379,-1.2863152263393482,0.0,0.0
1.342685370741483,0.11935656479684156,0.6012146161507449,-0.0654037975010843,-0.5601970672522175,-1.555292726938092,0.0,0.0
1.3627254509018036,0.1307924186964865,0.5717926949822466,-0.07611157869992892,-0.5353890599422312,-1.8139545217156587,0.0,0.0
1.3827655310621243,0.14154201736357808,0.5374799333545791,-0.08624042315341605,-0.5064422226743565,-2.0601410885061604,0.0,0.0
1.4028056112224447,0.1515122843248029,0.4985133480612421,-0.09571149096680341,-0.47355339066936786,-2.2917395503716023,0.0,0.0
1.4228456913827654,0.16061568274297605,0.45516992090865727,-0.10445058944915406,-0.43695492411753223,-2.506714728673031,0.0,0.0
1.442885771543086,0.1687709830506076,0.4077650153815764,-0.11238884531954141,-0.39691279351936715,-2.7031416605240755,0.0,0.0
1.4629258517034067,0.1759039867373596,0.356650184337601,-0.1194633266621664,-0.3537240671312497,-2.879238199029647,0.0,0.0
1.4829659318637274,0.18194819424267128,0.30221037526558436,-0.12561760379349782,-0.30771385656657035,-3.0333961747724993,0.0,0.0
1.503006012024048,0.18684540559165227,0.24486056744904983,-0.1308022398557735,-0.25923180311378374,-3.1642095682439724,0.0,0.0
1.5230460921843687,0.19054624365485412,0.18504190316009203,-0.13497520405353916,-0.20864820988828375,-3.270498241527062,0.0,0.0
1.5430861723446894,0.19301059166469106,0.12321740049184758,-0.13810220288547842,-0.15634994159696336,-3.3513260057573913,0.0,0.0
1.56312625250501,0.19420793879141773,0.05986735633633304,-0.14015692734258592,-0.1027362228553753,-3.40601214483656,0.0,0.0
1.5831663326653307,0.19411763003802518,-0.004515437669627101,-0.14112121667466815,-0.04821446660411102,-3.434135945659811,0.0,0.0
1.6032064128256511,0.19272901929586964,-0.0694305371077771,-0.1409851417929008,0.0068037440883670225,-3.435534258686207,0.0,0.0
1.6232464929859718,0.19004152693782633,-0.13437461790216582,-0.1397470135098064,0.06190641415472014,-3.4102925815682763,0.0,0.0
1.6432865731462925,0.18606460564425867,-0.19884606467838323,-0.13741332247927623,0.11668455152650743,-3.3587305752345316,0.0,0.0
1.6633266533066131,0.1808176201116207,-0.26234927663189855,-0.1339986187880387,0.17073518456187692,-3.281383246823899,0.0,0.0
1.6833667334669338,0.17432964777203877,-0.32439861697909633,-0.12952533961503296,0.22366395865028707,-3.178979240713657,0.0,0.0
1.7034068136272544,0.1666392085872722,-0.38452195923832977,-0.12402359321723566,0.2750873198898646,-3.05241775686516,0.0,0.0
1.723446893787575,0.1577939323524068,-0.4422638117432691,-0.11753090676967297,0.3246343223781349,-2.9027455694897255,0.0,0.0
1.7434869739478958,0.14785017177943044,-0.49718802864881734,-0.11009194437554173,0.3719481197065616,-2.7311354653059805,0.0,0.0
1.7635270541082164,0.13687256899337857,-0.5488801393025927,-0.10175819999286595,0.4166872191337889,-2.5388671850834714,0.0,0.0
1.783567134268537,0.12493358205809668,-0.5969493467640943,-0.09258766823925847,0.45852658768037413,-2.3273117457676666,0.0,0.0
1.8036072144288577,0.11211297683516819,-0.641030261146425,-0.08264449413757766,0.4971587050840405,-2.0979191023516277,0.0,0.0
1.8236472945891782,0.09849728822414061,-0.6807844305513788,-0.0719986013496075,0.5322946393985076,-1.8522107048976444,0.0,0.0
1.8436873747494988,0.08417925300880895,-0.7159017607665832,-0.06072529633495401,0.5636652507326747,-1.591774664196562,0.0,0.0
1.8637274549098195,0.06925721563606646,-0.7461018686371246,-0.04890484534173303,0.5910225496610486,-1.318265522865172,0.0,0.0
1.8837675350701402,0.053834506604439315,-0.7711354515813572,-0.036622019630345365,0.6141412855693833,-1.0334055920554035,0.0,0.0
1.9038076152304608,0.038018792695714676,-0.7907856954362319,-0.023965604712376812,0.6328207458984276,-0.7389892400024118,0.0,0.0
1.9238476953907815,0.021921397310388925,-0.8048697692662876,-0.011027869003793636,0.6468867854291588,-0.4368877241773788,0.0,0.0
1.9438877755511021,0.005656589136213554,-0.8132404087087686,0.002096011722360732,0.6561940363077184,-0.12905408102687432,0.0,0.0
1.9639278557114228,-0.010659162471570203,-0.8157875803891879,0.015308576543415733,0.6606282410527501,0.18247311107678088,0.0,0.0
1.9839679358717435,-0.026907966428763138,-0.8124401978596467,0.02851074906481986,0.6601086260702064,0.49556818595430274,0.0,0.0
2.004008016032064,-0.04297132322570119,-0.8031678398469027,0.04160255336924739,0.6545902152213764,0.8080200979993626,0.0,0.0
2.024048096192385,-0.058730971295959666,-0.7879824035129239,0.05448387277333764,0.6440659702045124,1.1175383139154067,0.0,0.0
2.0440881763527052,-0.07406976349419259,-0.7669396099116457,0.06705524553004122,0.6285686378351787,1.4217636489745926,0.0,0.0
2.064128256513026,-0.08887256883204875,-0.7401402668928082,0.07921868921824188,0.6081721844100326,1.7182845785012002,0.0,0.0
2.0841683366733466,-0.10302719257957395,-0.7077311873762598,0.09087854330944345,0.5829927045600783,2.004659261486132,0.0,0.0
2.1042084168336674,-0.11642530576337345,-0.669905659189975,0.10194231743694622,0.5531887063751387,2.2784431609844225,0.0,0.0
2.124248496993988,-0.12896337311151201,-0.626903367406928,0.11232153135280379,0.5189606957928782,2.5372217476294714,0.0,0.0
2.1442885771543083,-0.14054356675087099,-0.5790096819679492,0.12193253156478026,0.4805500105988238,2.778647350485433,0.0,0.0
2.164328657314629,-0.15107465160247638,-0.5265542425802693,0.1306972693000692,0.4382368867644463,3.000478805883096,0.0,0.0
2.1843687374749496,-0.16047282758473047,-0.4699087991127044,0.13854402481399555,0.3923377756963174,3.2006221915526107,0.0,0.0
2.2044088176352705,-0.16866251354328024,-0.40948429792748864,0.1454080641788523,0.3432019682428371,3.3771706665248478,0.0,0.0
2.224448897795591,-0.1755770583625547,-0.34572724096372204,0.1512322165296822,0.29120761754149516,3.5284413114094813,0.0,0.0
2.244488977955912,-0.1811593660092022,-0.2791153823323758,0.15596736223411686,0.23675728522173398,3.6530069130888068,0.0,0.0
2.2645290581162323,-0.18536242328006344,-0.21015286354306215,0.1595728254594126,0.18027316126478674,3.7497208779649807,0.0,0.0
2.284569138276553,-0.18814972167758073,-0.13936491987586386,0.1620166679470429,0.1221921243815147,3.8177338797337503,0.0,0.0
2.3046092184368736,-0.18949556795080216,-0.06729231366107129,0.16327588424992345,0.06296081514402826,3.856501415606205,0.0,0.0
2.3246492985971945,-0.189385281207608,0.005514337159707436,0.16333650199621907,0.0030308873147806142,3.8657821010236373,0.0,0.0
2.344689378757515,-0.18781527788223307,0.07850016626874676,0.16219359367769884,-0.05714541592601222,3.8456272051229226,0.0,0.0
2.3647294589178354,-0.18479304898818244,0.15111144470253068,0.15985120881020654,-0.1171192433746154,3.796362543651309,0.0,0.0
2.3847695390781563,-0.18033703678129126,0.2228006103445589,0.15632223692079464,-0.17644859447059544,3.718564338272274,0.0,0.0
2.4048096192384767,-0.17447642002938954,0.2930308375950862,0.1516282125892351,-0.23470121657797693,3.613030977130628,0.0,0.0
2.4248496993987976,-0.16725081842492937,0.361280080223009,0.14579907369325085,-0.29145694479921275,3.4807527510296365,0.0,0.0
2.444889779559118,-0.15870992724535357,0.42704455897878957,0.13887288313044666,-0.34630952814020927,3.3228815972753956,0.0,0.0
2.464929859719439,-0.14891309318999768,0.48984170276779454,0.13089552273031851,-0.3988680200064072,3.1407026847261665,0.0,0.0
2.4849699398797593,-0.13792884148568677,0.5492125852155455,0.12192036598724924,-0.44875783715346323,2.935609356296012,0.0,0.0
2.50501002004008,-0.12583436298221826,0.604723925173426,0.11200793382885861,-0.4956216079195314,2.709082553242882,0.0,0.0
2.5250501002004007,-0.11271496820594944,0.6559697388134411,0.10122553508309912,-0.5391199372879747,2.4626754207193233,0.0,0.0
2.5450901803607215,-0.09866351336763789,0.7025727419155774,0.0896468908176378,-0.5789322132730655,2.198003371241821,0.0,0.0
2.565130260521042,-0.08377980129001088,0.7441856038813507,0.07735173947622184,-0.6147575670707977,1.9167394889122222,0.0,0.0
2.5851703406813624,-0.06816995827927623,0.7804921505367322,0.06442541788413927,-0.6463160796041284,1.620614808637352,0.0,0.0
2.6052104208416833,-0.05194578624226836,0.8112086018503935,0.050958411863766095,-0.673350301018659,1.3114227098853724,0.0,0.0
2.6252505010020037,-0.03522408795434057,0.8360849143963893,0.037045869483056576,-0.6956271190354758,0.9910264268938134,0.0,0.0
2.6452905811623246,-0.018125962396004582,0.8549062779167995,0.02278706990994815,-0.7129399786554212,0.6613684945161392,0.0,0.0
2.665330661322645,-0.0007760665591311881,0.8674947918436697,0.008284841482534453,-0.725111421370685,0.3244808202036722,0.0,0.0
2.685370741482966,0.01669815988617992,0.8737113222655555,-0.006355076090814687,-0.731995878667457,-0.01750600505037203,0.0,0.0
2.7054108216432864,0.034167310159201436,0.8734575136510755,-0.021024728571055938,-0.7334826240120625,-0.3623555693528865,0.0,0.0
2.7254509018036073,0.051500868234149705,0.8666779037474135,-0.03561470379993455,-0.7294987614439303,-0.7077220594563411,0.0,0.0
2.7454909819639277,0.06856810954473808,0.8533620655294185,-0.05001494597789953,-0.720012108898249,-1.0511515305072807,0.0,0.0
2.7655310621242486,0.08523904310494135,0.8335466780101636,-0.0641156224130338,-0.7050338217567134,-1.3900891605806232,0.0,0.0
2.785571142284569,0.10138539129159765,0.8073174093328155,-0.07780803437034735,-0.6846205978656772,-1.7218933880059948,0.0,0.0
2.8056112224448895,0.1168816009342741,0.7748104821338226,-0.0909855605704262,-0.6588763100039422,-2.0438575072099066,0.0,0.0
2.8256513026052104,0.13160587661547954,0.736213784060272,-0.1035446190861936,-0.6279529257883698,-2.353238887698891,0.0,0.0
2.845691382765531,0.1454412243535986,0.6917673869059537,-0.11538563104904286,-0.592050598142463,-2.64729548685796,0.0,0.0
2.8657314629258517,0.15827649130021385,0.6417633473307616,-0.12641396787229295,-0.5514168411625043,-2.923328768874204,0.0,0.0
2.885771543086172,0.17000738492904435,0.5865446814415255,-0.13654086278186015,-0.5063447454783595,-3.178731555459583,0.0,0.0
2.905811623246493,0.18053745362711351,0.5265034349034579,-0.145684267430285,-0.45717023242124255,-3.4110387715049613,0.0,0.0
2.9258517034068134,0.1897790098087755,0.4620778090830988,-0.1537696353349722,-0.4042683952343592,-3.6179785776499678,0.0,0.0
2.9458917835671343,0.19765397681279834,0.3937483502011425,-0.1607306158395138,-0.34804902522708064,-3.7975210745451036,0.0,0.0
2.9659318637274548,0.20409464200396196,0.32203325955818163,-0.1665096451907465,-0.28895146756163503,-3.9479216858536543,0.0,0.0
2.9859719438877756,0.2090443006926611,0.2474829344349574,-0.17105842501547747,-0.2274389912365471,-4.067756522603391,0.0,0.0
3.006012024048096,0.2124577786203458,0.1706738963842342,-0.17433828275062208,-0.1639928867572304,-4.1559475085678725,0.0,0.0
3.0260521042084165,0.2143018246475957,0.09220230136249619,-0.17632041314088867,-0.09910651951332945,-4.211775770934785,0.0,0.0
3.0460921843687374,0.21455536965168331,0.012677250204381152,-0.17698600443605003,-0.033279564758068064,-4.234882697513425,0.0,0.0
3.066132264529058,0.21320965216025625,-0.06728587457135242,-0.17632625705093463,0.03298736925576956,-4.225259026538377,0.0,0.0
3.0861723446893787,0.2102682155663306,-0.14707182969628207,-0.1743423058785117,0.09919755862114657,-4.183223251895814,0.0,0.0
3.106212424849699,0.20574678555856402,-0.22607150038832893,-0.17104505991655491,0.16486229809783917,-4.109391389312212,0.0,0.0
3.12625250501002,0.19967303939147654,-0.30368730835437385,-0.16645497421953667,0.2295042848509123,-4.004640679529204,0.0,0.0
