time,x,x_dot,theta,theta_dot,u,x_ref,theta_ref
0.0,-1.5097379613045137,-0.0483773850454454,-0.03769170887154755,0.09383678962888439,-9.71783125184055,0.0,0.0
0.02004008016032064,-1.514486480361232,-0.23742595283591,-0.03037252049676845,0.3659594187389549,-8.552432516159799,0.0,0.0
0.04008016032064128,-1.5225635358934824,-0.40385277661252594,-0.018244398685081598,0.6064060905843426,-7.695660815437289,0.0,0.0
0.06012024048096192,-1.5336384684620157,-0.553746628426666,-0.001730222096178305,0.8257088294451647,-6.762691013797689,0.0,0.0
0.08016032064128256,-1.5473519058475165,-0.6856718692750373,0.01872906639828065,1.0229644247229477,-5.77735921474454,0.0,0.0
0.1002004008016032,-1.5633247462621291,-0.7986420207306386,0.04268480023609489,1.1977866918907119,-4.743920635448798,0.0,0.0
0.12024048096192384,-1.5811595659434026,-0.8917409840636702,0.06967996974555411,1.349758475472961,-3.66244151837179,0.0,0.0
0.1402805611222445,-1.6004404865893607,-0.964046032297906,0.0992468063537537,1.4783418304099794,-2.53207622001953,0.0,0.0
0.16032064128256512,-1.6207327995688983,-1.0146156489768816,0.1309045728259587,1.5828883236102487,-1.352305032222884,0.0,0.0
0.18036072144288576,-1.6415828361066214,-1.042501826886151,0.1641582919816123,1.662685957782681,-0.12374688886232899,0.0,0.0
0.2004008016032064,-1.662518393051478,-1.0467778472428282,0.19849880926814456,1.7170258643266123,1.1511281492507763,0.0,0.0
0.22044088176352705,-1.683049969400711,-1.02657881746165,0.2334044247955191,1.745280776368727,2.4673199035673545,0.0,0.0
0.24048096192384769,-1.7026730399125696,-0.9811535255929226,0.2683442028380787,1.746988902127979,3.816631216261807,0.0,0.0
0.2605210420841683,-1.7208715733244004,-0.9099266705915382,0.3027829573646226,1.7219377263271936,5.187005988701547,0.0,0.0
0.280561122244489,-1.7371229910026273,-0.8125708839113437,0.33618782981784445,1.6702436226610935,6.561890141112552,0.0,0.0
0.3006012024048096,-1.750904749983709,-0.6890879490540827,0.3680363249858229,1.592424758398921,7.919710237995796,0.0,0.0
0.32064128256513025,-1.7617026944533267,-0.5398972234808899,0.39782562882673694,1.4894651920457036,9.233684075275956,0.0,0.0
0.3406813627254509,-1.769021206515565,-0.3659256031119109,0.4250829514593982,1.3628661316330626,9.999999999999956,0.0,0.0
0.3607214428857715,-1.7725769933021822,-0.17778933933085667,0.44962507200388757,1.2271060272244685,9.999999999999995,0.0,0.0
0.3807615230460922,-1.772381760533711,0.009761638423555846,0.4716570641784264,1.1015996087269426,9.99999999999998,0.0,0.0
0.4008016032064128,-1.7684459923393228,0.19678840971941422,0.49136396766894386,0.9853451745258742,9.999999999999998,0.0,0.0
0.42084168336673344,-1.7607790070396276,0.3833492649847601,0.508911908697706,0.8773970514381064,9.999999999998478,0.0,0.0
0.4408817635270541,-1.749389027284971,0.5694989877328254,0.5244492051574011,0.776864822984758,10.0,0.0,0.0
0.4609218436873747,-1.7342832560718215,0.755288560657476,0.538107422622232,0.6829108732415456,10.0,0.0,0.0
0.48096192384769537,-1.7154679529544812,0.9407651558670207,0.5500023591505498,0.5947468264158917,9.999999999999988,0.0,0.0
0.501002004008016,-1.6929485067600223,1.1259723097229395,0.5602349450218651,0.5116292935657654,10.0,0.0,0.0
0.5210420841683366,-1.6667295025049944,1.3109502127513937,0.5688920492615638,0.4328552119849334,9.99999999999993,0.0,0.0
0.5410821643286573,-1.636814781162564,1.4957360671215272,0.5760471886655649,0.3577569702000563,9.999999999999824,0.0,0.0
0.561122244488978,-1.6032074915599317,1.6803644801316129,0.581761137550604,0.28569744425195304,9.999999999999998,0.0,0.0
0.5811623246492986,-1.5659101340889694,1.8648678735481166,0.5860824380019232,0.21606502256595797,9.999999999999787,0.0,0.0
0.6012024048096192,-1.5249245961549918,2.0492768966988857,0.5890478112481751,0.14826866231259667,9.999999999999778,0.0,0.0
0.6212424849699398,-1.4802521794182864,2.233620836835268,0.5906824711681643,0.08173299599946157,10.0,0.0,0.0
0.6412825651302605,-1.431893618935932,2.417928024117719,0.5910003409758038,0.01589349038197231,10.0,0.0,0.0
0.6613226452905812,-1.379849094313379,2.602226231127645,0.5900041739492521,-0.04980835132758704,10.0,0.0,0.0
0.6813627254509018,-1.324118232945404,2.786543068398753,0.5876855787514677,-0.11592975988922359,10.0,0.0,0.0
0.7014028056112224,-1.2647001053791826,2.9709063783110676,0.5840249494988625,-0.18303146263025777,10.0,0.0,0.0
0.721442885771543,-1.2015932127807771,3.1553446299202785,0.5789913003295436,-0.25168245846594767,10.0,0.0,0.0
0.7414829659318637,-1.1347954664419948,3.3398873169391163,0.5725420038577963,-0.3224648235873643,9.999999999999556,0.0,0.0
0.7615230460921844,-1.0643041592399953,3.524565360099974,0.564622432636693,-0.3959785610551631,10.0,0.0,0.0
0.781563126252505,-0.9901159289724513,3.7094115133772023,0.5551655026577031,-0.472846498949492,9.999999999999288,0.0,0.0
0.8016032064128256,-0.912226713556389,3.8944607708031134,0.5440911180871061,-0.5537192285298549,9.999999999999991,0.0,0.0
0.8216432865731462,-0.8306316982258837,4.079750766525264,0.5313055169967381,-0.6392800545183991,10.0,0.0,0.0
0.8416833667334669,-0.745325255129415,4.26532215482343,0.5167005189577614,-0.7302499019488378,9.99999999995243,0.0,0.0
0.8617234468937875,-0.6563008761625075,4.451218948345373,0.5001526772574724,-0.8273920850144512,10.0,0.0,0.0
0.8817635270541082,-0.5635511005442991,4.637488780910418,0.4815223414781681,-0.9315167889652146,9.99999999984333,0.0,0.0
0.9018036072144289,-0.46706743965192205,4.824183044618854,0.46065264065844663,-1.0434850409860734,10.0,0.0,0.0
0.9218436873747494,-0.3668403030870288,5.011356828244661,0.437368403789034,-1.1642118434706306,10.0,0.0,0.0
0.9418837675350701,-0.2628589320299254,5.199068552855171,0.4114750436986942,-1.2946680045169918,9.999999999999682,0.0,0.0
0.9619238476953907,-0.1551113488405649,5.387379159468024,0.38275744336769935,-1.435880016549744,9.999999999999927,0.0,0.0
0.9819639278557114,-0.04358433584868322,5.576350649594084,0.35097890149098626,-1.5889270938356537,10.0,0.0,0.0
1.002004008016032,0.07173653837694714,5.766043711281518,0.3158802179887035,-1.7549341751141363,9.999999999999998,0.0,0.0
1.0220440881763526,0.19086681997855715,5.956514080080501,0.2771790314834461,-1.9350593252628725,10.0,0.0,0.0
1.0420841683366733,0.31382296376106994,6.147807189125639,0.23456956067392626,-2.1304735404759905,9.999999999998971,0.0,0.0
1.062124248496994,0.44062197504963396,6.339950564428203,0.18772295043842002,-2.3423305117753115,10.0,0.0,0.0
1.0821643286573146,0.5712808418653246,6.532943340784531,0.1362884801306401,-2.571723515388996,10.0,0.0,0.0
1.1022044088176353,0.7058156868363461,6.726742248551079,0.07989595145990375,-2.8196264335368175,9.999999999999549,0.0,0.0
1.122244488977956,0.8442405571510867,6.921243515737029,0.018159626873760187,-3.086816229307178,9.857606166505386,0.0,0.0
1.1422845691382766,0.9865102014914596,7.113482217018646,-0.04923260017632217,-3.369611352504118,5.354450770731784,0.0,0.0
1.1623246492985972,1.130872108242395,7.218095337546765,-0.12004665023254896,-3.5407025028113392,1.4858222178668181,0.0,0.0
1.1823647294589177,1.2758179957752551,7.247294376643009,-0.19243356420997443,-3.6193456988712738,-1.931645760107953,0.0,0.0
1.2024048096192383,1.4200170277682416,7.209951599649322,-0.2648453966481887,-3.620591621910712,-4.966593582314255,0.0,0.0
1.222444889779559,1.5622930643491446,7.113801829045148,-0.3360132362828762,-3.5583919817343777,-7.672600379536551,0.0,0.0
1.2424849699398797,1.7016063709287401,6.96566532897978,-0.404925707322013,-3.445623551956838,-9.999999999999972,0.0,0.0
1.2625250501002003,1.8370735958054145,6.773361243833725,-0.47085388911246867,-3.2964090895227844,-9.99999999999991,0.0,0.0
1.282565130260521,1.968715820898388,6.582111254648671,-0.5343378932229474,-3.1742002055239396,-10.0,0.0,0.0
1.3026052104208417,2.0965534498043836,6.391881445299787,-0.5959062225821535,-3.0784164679603068,-10.0,0.0,0.0
1.3226452905811623,2.2206053893031372,6.202596974937681,-0.6560758459359712,-3.0084811676908876,-10.0,0.0,0.0
1.342685370741483,2.3408884438728514,6.014152728485704,-0.7153532459975741,-2.963870003080146,-9.999999999999998,0.0,0.0
1.3627254509018036,2.4574168409886203,5.826419855788455,-0.7742361211018423,-2.944143755213408,-9.999999999999906,0.0,0.0
1.3827655310621243,2.570201821419958,5.639249021566867,-0.8332154927873079,-2.948968584273284,-10.0,0.0,0.0
1.4028056112224447,2.6792512428104422,5.452471069524231,-0.8927780317744068,-2.9781269493549494,-10.0,0.0,0.0
1.4228456913827654,2.784569156405951,5.265895679775446,-0.9534084616275219,-3.031521492655754,-9.999999999999956,0.0,0.0
1.442885771543086,2.8861553264311546,5.079308501260161,-1.0155919341949307,-3.1091736283704425,-10.0,0.0,0.0
1.4629258517034067,2.9840046701831606,4.892467187600296,-1.0798162953995758,-3.2112180602322615,-10.0,0.0,0.0
1.4829659318637274,3.0781066055292206,4.705096767302993,-1.1465741753539698,-3.337893997719704,-10.0,0.0,0.0
1.503006012024048,3.168444302481952,4.516884847636571,-1.216364843217526,-3.4895333931778074,-9.999999999999995,0.0,0.0
1.5230460921843687,3.2549938484594625,4.3274772988755235,-1.2896957629958243,-3.666545988914915,-10.0,0.0,0.0
1.5430861723446894,3.337723354663077,4.136475310180725,-1.3670837671732192,-3.8694002088697466,-10.0,0.0,0.0
1.56312625250501,3.4165920561828598,3.943435075989135,-1.4490557223568739,-4.098597759182726,-10.0,0.0,0.0
1.5831663326653307,3.49154949413213,3.7478718974635012,-1.5361484813191326,-4.354637948112941,-9.999999999999524,0.0,0.0
1.6032064128256511,3.562534918346007,3.5492712106938593,-1.628907778380067,-4.637964853046719,-9.999999999999998,0.0,0.0
1.6232464929859718,3.6294771188500605,3.3471100252026624,-1.727885501584599,-4.948886160226611,-9.999999999999998,0.0,0.0
1.6432865731462925,3.692294988598491,3.1408934874215286,-1.8336344309690467,-5.2874464692223775,-10.0,0.0,0.0
1.6633266533066131,3.7508992423118737,2.930212685669138,-1.9466990347361193,-5.6532301883536284,-9.999999999999996,0.0,0.0
1.6833667334669338,3.8051958628672327,2.714831027767957,-2.0676002570965917,-6.045061118023624,-9.999999999999218,0.0,0.0
1.7034068136272544,3.855091994823088,2.4948065977927723,-2.1968114845478186,-6.460561372561345,-9.999999999999792,0.0,0.0
1.723446893787575,3.900505090107961,2.2706547642436434,-2.3347222957197857,-6.895540558598368,-9.99999999999502,0.0,0.0
1.7434869739478958,3.9413759943538897,2.0435452122964346,-2.481586781696913,-7.343224298856367,-10.0,0.0,0.0
1.7635270541082164,3.977686099480795,1.8155052563452532,-2.6374552637225945,-7.793424101284068,-10.0,0.0,0.0
1.783567134268537,4.009477360903565,1.5895630711385274,-2.80209360387475,-8.231917007607779,-9.764918418080894,0.0,0.0
1.8036072144288577,4.036962704680221,1.3742671888327966,-2.974775258029123,-8.634082707718656,-9.999999999997964,0.0,0.0
1.8236472945891782,4.060265770607993,1.1651532963886169,-3.154615112113121,-8.991992704199902,4.044894310510733,0.0,0.0
1.8436873747494988,4.085171515871852,1.2452872631929721,-3.331976130412667,-8.868050914977296,-10.0,0.0,0.0
1.8637274549098195,4.1065279217940835,1.067820296111599,-3.513449687321606,-9.073677845446957,9.999999999999993,0.0,0.0
1.8837675350701402,4.132423478143908,1.2947778174911992,-3.6864486874607962,-8.649950006959527,-10.0,0.0,0.0
1.9038076152304608,4.155358617279106,1.146756956759904,-3.8601972763631682,-8.687429445118603,-3.2642055713265927,0.0,0.0
1.9238476953907815,4.178136434188082,1.1388908454488091,-4.030254793095985,-8.502875836640808,-10.0,0.0,0.0
1.9438877755511021,4.1983597919888105,1.0111678900363958,-4.198165117623449,-8.395516226373228,-9.999999999913312,0.0,0.0
1.9639278557114228,4.216136648797952,0.8888428404570746,-4.362762946176607,-8.22989142765791,-10.0,0.0,0.0
1.9839679358717435,4.231500783820888,0.7682067511467915,-4.52307888980773,-8.01579718155611,-9.999999999999924,0.0,0.0
2.004008016032064,4.244419385630346,0.6459300904728961,-4.678313365325237,-7.761723775875344,-9.999999999999995,0.0,0.0
2.024048096192385,4.254805234295935,0.5192924332794482,-4.827804276643795,-7.474545565927914,-9.99999999941012,0.0,0.0
2.0440881763527052,4.262530799219581,0.3862782461823273,-4.970998708291408,-7.159721582380673,-10.0,0.0,0.0
2.064128256513026,4.267442459431932,0.2455830106175384,-5.10743346726732,-6.821737948795612,-10.0,0.0,0.0
2.0841683366733466,4.269373742982376,0.09656417752222507,-5.236725077993944,-6.464580536331149,-9.999999999987079,0.0,0.0
2.1042084168336674,4.268156893650492,-0.060842466594217826,-5.358567170075257,-6.092104604065668,-10.0,0.0,0.0
2.124248496993988,4.263632302902146,-0.2262295374172474,-5.472731939365502,-5.708238464512261,-9.999999999999966,0.0,0.0
2.1442885771543083,4.255655518657448,-0.39883921223494506,-5.579072230485505,-5.317014556000171,-9.9999999999287,0.0,0.0
2.164328657314629,4.2441017367606575,-0.5776890948395238,-5.677521481629336,-4.922462557191522,-9.999999999998819,0.0,0.0
2.1843687374749496,4.2288679041808805,-0.761691628988843,-5.7680899385748,-4.528422847273186,-10.0,0.0,0.0
2.2044088176352705,4.209872774494038,-0.9497564843421415,-5.850856799376727,-4.138343040096359,-9.999999999999996,0.0,0.0
2.224448897795591,4.187055404587903,-1.1408684953067623,-5.925958962984837,-3.7551081804055277,-10.0,0.0,0.0
2.244488977955912,4.160372636353772,-1.3341384117065216,-5.993577637467272,-3.380933724121749,-9.999999999999996,0.0,0.0
2.2645290581162323,4.129796071168937,-1.5288282592417322,-6.053924203193916,-3.0173282863322313,-10.0,0.0,0.0
2.284569138276553,4.09530894648382,-1.7243562342558612,-6.107226537281288,-2.6651167043685873,-10.0,0.0,0.0
2.3046092184368736,4.056903199606348,-1.9202873438736392,-6.153716649126424,-2.324505592256788,-9.999999999997032,0.0,0.0
2.3246492985971945,4.014576884662979,-2.1163157471684184,-6.193620093820881,-1.9951722347228447,-9.999999999997854,0.0,0.0
2.344689378757515,3.968332012940322,-2.3122435861328743,-6.2271473088965035,-1.6763607537811451,-10.0,0.0,0.0
2.3647294589178354,3.9181728204267197,-2.5079596256801224,-6.254486795681608,-1.366974339255218,-10.0,0.0,0.0
2.3847695390781563,3.8641044272360543,-2.7034196595332682,-6.27579993839201,-1.0656571355201112,-10.0,0.0,0.0
2.4048096192384767,3.8061318357344582,-2.898629575079813,-6.291217202697574,-0.7708632152782009,-9.999999999999982,0.0,0.0
2.4248496993987976,3.744259210967892,-3.0936312383283004,-6.30083545722094,-0.4809127261683106,-10.0,0.0,0.0
2.444889779559118,3.6784893927823212,-3.2884909092785426,-6.304716195596597,-0.1940369187828202,-9.999999999999995,0.0,0.0
2.464929859719439,3.6088235997889178,-3.4832896496701813,-6.302884488398667,0.09158535989647848,-10.0,0.0,0.0
2.4849699398797593,3.535261298497565,-3.678115064567642,-6.295328554105913,0.3777967146377285,-10.0,0.0,0.0
2.50501002004008,3.457800225108988,-3.8730536694288507,-6.28199990132836,0.6664326388776258,-9.99999999999953,0.0,0.0
2.5250501002004007,3.3764365619339696,-4.068183158750927,-6.262814058543029,0.9592921392665916,-9.999999999999861,0.0,0.0
2.5450901803607215,3.2911652848429216,-4.263563854552409,-6.237651971545806,1.2581043498611504,-9.99999999998876,0.0,0.0
2.565130260521042,3.2019807121404185,-4.459228635125148,-6.206362211400039,1.5644880072883574,-10.0,0.0,0.0
2.5851703406813624,3.1088772979803188,-4.655170708004975,-6.16876419371964,1.8799008840199538,-10.0,0.0,0.0
2.6052104208416833,3.011850723226108,-4.851328737710557,-6.124652657118788,2.205576830042602,-10.0,0.0,0.0
2.6252505010020037,2.910899340600986,-5.047569131256081,-6.0738036730405565,2.5424492039115707,-10.0,0.0,0.0
2.6452905811623246,2.806026024560217,-5.2436658020384534,-6.015982443329609,2.891061485547374,-9.999999999997987,0.0,0.0
2.665330661322645,2.697240453461413,-5.4392785549402,-5.950953062752378,3.251469028861553,-9.999999999999998,0.0,0.0
2.685370741482966,2.5845618053595576,-5.633932405092769,-5.87849025671557,3.623140301840374,-9.999999999991836,0.0,0.0
2.7054108216432864,2.468021773301263,-5.827001602914739,-5.798392833576376,4.004871156959713,-9.999999999969008,0.0,0.0
2.7254509018036073,2.347667700251529,-6.01770365248669,-5.710498224926008,4.394730432518403,-9.999999999999996,0.0,0.0
2.7454909819639277,2.223565506165476,-6.205109704302658,-5.614697080122494,4.790057240175682,-9.004485934154905,0.0,0.0
2.7655310621242486,2.0961798136142,-6.369284627563819,-5.51139106478179,5.165300767035188,-5.3074372211099305,0.0,0.0
2.785571142284569,1.9670063936850521,-6.45867099645738,-5.402066178224089,5.466244327885058,-1.783648947775537,0.0,0.0
2.8056112224448895,1.8374621369591793,-6.477212836293643,-5.287854272914016,5.7105952655036605,2.389305091234347,0.0,0.0
2.8256513026052104,1.7091878232495668,-6.413715685480623,-5.1697485414209625,5.9052865746526795,5.876298032832701,0.0,0.0
2.845691382765531,1.5835484059175933,-6.281970866598674,-5.048114630734444,6.081695534325913,8.77913092666763,0.0,0.0
2.8657314629258517,1.4616811590061423,-6.0933623455725545,-4.92279543217951,6.265959927746731,9.999999999999584,0.0,0.0
2.885771543086172,1.3441065940824195,-5.878728246186136,-4.793073499866451,6.486096615652948,9.999999999999995,0.0,0.0
2.905811623246493,1.2309112839529113,-5.659765506475412,-4.658023458849357,6.7525020508547255,9.999999999999995,0.0,0.0
2.9258517034068134,1.1221955299832334,-5.435787698483893,-4.516740880331915,7.0641289258720805,9.99999999997632,0.0,0.0
2.9458917835671343,1.0180688904439736,-5.206331976962987,-4.368356717951942,7.419208118998662,9.999999999999995,0.0,0.0
2.9659318637274548,0.9186420238640307,-4.971343328997145,-4.212064302662074,7.8146207644933945,9.999999999999755,0.0,0.0
2.9859719438877756,0.8240134228087879,-4.73143005276214,-4.047165329418722,8.244948662167571,9.999999999999991,0.0,0.0
3.006012024048096,0.734249634834024,-4.488189398738197,-3.873141699809449,8.701181480463651,9.999999999999966,0.0,0.0
3.0260521042084165,0.6493584110591829,-4.244561188742054,-3.6897571361801123,9.16922818146684,9.207679715989665,0.0,0.0
3.0460921843687374,0.568953515588605,-4.0202447735288995,-3.497570375395581,9.609338039226579,8.154991157034827,0.0,0.0
3.066132264529058,0.4924180689034501,-3.8267723342577438,-3.297898784255493,9.983579557004392,7.388116033590503,0.0,0.0
3.0861723446893787,0.4191067581740885,-3.665565536468081,-3.092538160575889,10.2680311839802,6.921782478504342,0.0,0.0
3.106212424849699,0.3483811437651939,-3.5362807204447284,-2.88359422235793,10.44719691089796,6.7784237581631865,0.0,0.0
3.12625250501002,0.2796769678300479,-3.435208796757301,-2.6732196340671446,10.518729414539266,6.937558279640987,0.0,0.0
3.1462925851703405,0.21256624133155236,-3.3555363249247776,-2.4633663966241404,10.492661872150208,7.358124386961604,0.0,0.0
3.1663326653306614,0.1468003430162183,-3.2882949157667034,-2.2556302234494225,10.38680865873588,7.981169620416175,0.0,0.0
3.186372745490982,0.08232164544235213,-3.2239348786933086,-2.0512248530094483,10.220268521998706,8.721125112368124,0.0,0.0
3.2064128256513023,0.019240971085295808,-3.154033717852816,-1.8510620330738778,10.008140996778529,9.44274536963559,0.0,0.0
3.226452905811623,-0.042218613542441136,-3.072979231386847,-1.6558740610010936,9.759398603639214,9.93607590623692,0.0,0.0
3.2464929859719436,-0.10181225617742834,-2.9796821317493603,-1.4663034725149502,9.478529424307169,9.97887159541262,0.0,0.0
3.2665330661322645,-0.15937259361647332,-2.878016871952249,-1.2828950798562102,9.170419632936996,9.717247696845488,0.0,0.0
3.286573146292585,-0.21478094088441788,-2.770417363397228,-1.1060371392642814,8.842897029596438,9.999999999602837,0.0,0.0
3.306613226452906,-0.2676825444789952,-2.6450801797288657,-0.9361164806229504,8.496032932066548,9.99999999863024,0.0,0.0
3.3266533066132262,-0.3178106489398657,-2.5064052230435263,-0.7733929553313794,8.136176264578546,9.999999999999998,0.0,0.0
3.346693386773547,-0.3649037797787995,-2.3546565419466887,-0.6180298925134728,7.768153140895326,10.0,0.0,0.0
3.3667334669338675,-0.4087219051411771,-2.1909062681188813,-0.47007305296703206,7.39784197732204,10.0,0.0,0.0
