time,x,x_dot,theta,theta_dot,u,x_ref,theta_ref
0.0,0.26766735551746024,-0.01385117090196289,-0.1623704698153902,-0.030384089912800907,-3.537067121371996,0.0,0.0
0.02004008016032064,0.26605834637039794,-0.08045045735311386,-0.16195763929213838,0.020641526162590934,-3.6177354344706694,0.0,0.0
0.04008016032064128,0.2630858091816195,-0.14862685943892134,-0.1604751041234202,0.07412675843590878,-3.613011301144875,0.0,0.0
0.06012024048096192,0.2587511191842787,-0.21673449986704063,-0.15791581406594912,0.1279645028735537,-3.5804496346996393,0.0,0.0
0.08016032064128256,0.2530661516872964,-0.2842483748491144,-0.15428167196125228,0.18170710523484268,-3.5204915812663082,0.0,0.0
0.1002004008016032,0.24605311525143914,-0.3506518217928639,-0.14958333505045363,0.23491684553993322,-3.4337188980455613,0.0,0.0
0.12024048096192384,0.23774433534534312,-0.4154389953048013,-0.1438400135632977,0.2871660743577959,-3.3209143485717645,0.0,0.0
0.1402805611222445,0.2281819644700695,-0.4781185437636809,-0.13707922634624417,0.3380393608526761,-3.183034650074297,0.0,0.0
0.16032064128256512,0.21741762863005668,-0.5382167920006409,-0.12933652212809535,0.38713521090744063,-3.0211846014779282,0.0,0.0
0.18036072144288576,0.20551201943946656,-0.5952804595295048,-0.12065517320945397,0.4340674459320691,-2.8365932673450174,0.0,0.0
0.2004008016032064,0.19253444026911057,-0.6488789585177994,-0.11108584649695187,0.4784663356251054,-2.6305934013017773,0.0,0.0
0.22044088176352705,0.17856231354247068,-0.6986063363319939,-0.10068625470606095,0.5199795895445459,-2.4046049463225314,0.0,0.0
0.24048096192384769,0.16368065471438228,-0.7440829414044196,-0.08952078840186047,0.5582733152100244,-2.1601231864240873,0.0,0.0
0.2605210420841683,0.14798151671288864,-0.7849569000746826,-0.07766012744362862,0.5930330479115923,-1.8987110688430844,0.0,0.0
0.280561122244489,0.13156340710138692,-0.8209054805750868,-0.06518082890411937,0.623964926975462,-1.6219968202903112,0.0,0.0
0.3006012024048096,0.11453067829374729,-0.8516364403819818,-0.052164886652020084,0.6507971126049644,-1.3316752174889437,0.0,0.0
0.32064128256513025,0.0969928899005405,-0.8768894196603395,-0.03869925705086236,0.6732814800578864,-1.029511189884257,0.0,0.0
0.3406813627254509,0.07906414156873275,-0.8964374165903877,-0.024875345386614033,0.6911955832124163,-0.7173468795926137,0.0,0.0
0.3607214428857715,0.06086237353619442,-0.9100884016269164,-0.010788447182998968,0.7043449101807532,-0.3971091810081942,0.0,0.0
0.3807615230460922,0.04250863214535763,-0.9176870695418394,0.003462860197372148,0.7125653690185558,-0.07081733278966751,0.0,0.0
0.4008016032064128,0.02412629774029279,-0.9191167202532421,0.017777378912115418,0.7157259357371635,0.25941082822894856,0.0,0.0
0.42084168336673344,0.005840273070385111,-0.914301233495384,0.032052006265750596,0.7137313676817587,0.5913552146778593,0.0,0.0
0.4408817635270541,-0.012223868521898728,-0.9032070796141919,0.046182503559180216,0.706524864671481,0.9226936496150571,0.0,0.0
0.4609218436873747,-0.029940774275548806,-0.8858452876825038,0.060064314471603916,0.6940905456211852,1.2510069399384776,0.0,0.0
0.48096192384769537,-0.047186239751718956,-0.8622732738085077,0.0735934264861716,0.6764556007283843,1.5737897803768706,0.0,0.0
0.501002004008016,-0.06383816811410194,-0.8325964181191491,0.08666726607545623,0.6536919794642312,1.8884681507876386,0.0,0.0
0.5210420841683366,-0.07977755350698595,-0.7969692696442008,0.09918561573451395,0.6259174829528863,2.1924235354576482,0.0,0.0
0.5410821643286573,-0.09488947861574745,-0.7555962554380748,0.11105153865288199,0.5932961459184019,2.4830238827232978,0.0,0.0
0.561122244488978,-0.10906411411397893,-0.7087317749115737,0.12217229501109658,0.5560378179107295,2.757660748625046,0.0,0.0
0.5811623246492986,-0.12219770558255201,-0.6566795734286539,0.1324602327165023,0.5143968852702869,3.013791553811536,0.0,0.0
0.6012024048096192,-0.13419353180752414,-0.5997913112486059,0.14183363497812443,0.4686701130811054,3.248985368176052,0.0,0.0
0.6212424849699398,-0.1449628173009009,-0.5384642746688381,0.15021750754761837,0.4191936284746969,3.460970175098742,0.0,0.0
0.6412825651302605,-0.15442558159398218,-0.4731382146540636,0.15754428976303392,0.36633911077077774,3.6476792178855733,0.0,0.0
0.6613226452905812,-0.162511408437565,-0.4042913421791417,0.16375447570644908,0.3105092971707582,3.8072938553955793,0.0,0.0
0.6813627254509018,-0.16916011955334775,-0.332435555789137,0.16879713474016111,0.252132951685602,3.9382803999392224,0.0,0.0
0.7014028056112224,-0.17432233998350677,-0.2581110215079507,0.1726303242627023,0.19165947612705958,4.039418701903356,0.0,0.0
0.721442885771543,-0.17795994526058645,-0.18188026385398362,0.1752213915028608,0.12955336200792472,4.109820772268534,0.0,0.0
0.7414829659318637,-0.18004638436513265,-0.10432195522730962,0.17654716527336198,0.06628868852505779,4.14893845012846,0.0,0.0
0.7615230460921844,-0.1805668764866031,-0.026024606073523263,0.17659404253569214,0.0023438631165080964,4.156559950351654,0.0,0.0
0.781563126252505,-0.17951848365029593,0.0524196418153591,0.17535797808834758,-0.06180322236722767,4.132795970618538,0.0,0.0
0.8016032064128256,-0.17691006501420836,0.1304209318043788,0.17284438842492023,-0.12567948317136757,4.078056799489145,0.0,0.0
0.8216432865731462,-0.17276212180350375,0.2073971605352307,0.16906798262451198,-0.18882029002041295,3.9930224649173645,0.0,0.0
0.8416833667334669,-0.16710654422853052,0.28277887874866153,0.16405253392940716,-0.2507724347552409,3.8786083407207266,0.0,0.0
0.8617234468937875,-0.15998627319937955,0.35601355145754876,0.1578306054213963,-0.3110964254005431,3.7359287662560994,0.0,0.0
0.8817635270541082,-0.15145489016893382,0.4265691515222868,0.15044324200476147,-0.3693681708317403,3.5662611438684886,0.0,0.0
0.9018036072144289,-0.14157614805397783,0.49393710574779875,0.14193963889076117,-0.4251801557000151,3.3710126979519335,0.0,0.0
0.9218436873747494,-0.1304234550157044,0.5576346519136717,0.13237679415840517,-0.47814223661779953,3.1516916618077113,0.0,0.0
0.9418837675350701,-0.11807932109126214,0.6172066962221133,0.12181914997240288,-0.5278822093001142,2.9098841621280784,0.0,0.0
0.9619238476953907,-0.10463477544848698,0.6722272821387576,0.11033822391280446,-0.5740463029799217,2.647237548791243,0.0,0.0
0.9819639278557114,-0.09018875958608301,0.7223007931201986,0.09801222884422975,-0.6162997534287354,2.365450412658998,0.0,0.0
1.002004008016032,-0.07484749931262892,0.7670630136727044,0.08492567703534032,-0.6543275904444714,2.0662690751789734,0.0,0.0
1.0220440881763526,-0.058723855982425605,0.8061821665101659,0.0711689620099871,-0.6878357512676612,1.7514899378106197,0.0,0.0
1.0420841683366733,-0.04193665539155639,0.8393600295434606,0.05683791001236442,-0.716552599881134,1.4229667525278278,0.0,0.0
1.062124248496994,-0.024609991062877378,0.8663332164339504,0.04203329210220169,-0.7402308955081363,1.0826216158035233,0.0,0.0
1.0821643286573146,-0.006872497465273016,0.8868746798802181,0.026860287824077025,-0.7586502139062333,0.7324582929345397,0.0,0.0
1.1022044088176353,0.011143411915045094,0.9007954690159055,0.011427892136631566,-0.771619784372273,0.37457634170346893,0.0,0.0
1.122244488977956,0.02930234676551337,0.9079467425234138,-0.004151741180503595,-0.778981665856758,0.011184420150512353,0.0,0.0
1.1422845691382766,0.04746678693511494,0.9082220084800785,-0.01976402416713348,-0.7806141493314941,-0.3553888678199385,0.0,0.0
1.1623246492985972,0.0654979775687484,0.901559531681673,-0.0352927290184874,-0.7764352425676962,-0.7226882101731276,0.0,0.0
1.1823647294589177,0.08325687397605676,0.8879448203654182,-0.05062085040983217,-0.7664060695672384,-1.0881304397549743,0.0,0.0
1.2024048096192383,0.1006051355377418,0.8674130780842517,-0.0656315304413918,-0.7505340015779816,-1.4490103701032475,0.0,0.0
1.222444889779559,0.11740616522329428,0.8400514842776245,-0.0802090370628358,-0.7288753310721996,-1.8025147277001372,0.0,0.0
1.2424849699398797,0.13352618822963092,0.8060011503168312,-0.09423978316359251,-0.701537305037835,-2.1457449381171503,0.0,0.0
1.2625250501002003,0.14883535999151057,0.7654585880939826,-0.10761337015851956,-0.6686793497463526,-2.4757490554007884,0.0,0.0
1.282565130260521,0.16320889053751766,0.7186765273003553,-0.12022363707320594,-0.6305133457343189,-2.7895625459875713,0.0,0.0
1.3026052104208417,0.1765281690786518,0.6659639270567067,-0.13196969404364517,-0.587302848521962,-3.0842569677590683,0.0,0.0
1.3226452905811623,0.18868187005576562,0.6076850488556912,-0.1427569179746148,-0.5393611965484816,-3.356994861952753,0.0,0.0
1.342685370741483,0.1995670198856773,0.5442574914955837,-0.15249788799929503,-0.48704850123401267,-3.605088464743846,0.0,0.0
1.3627254509018036,0.2090900025729431,0.4761491343632907,-0.1611132394489753,-0.43076757248401293,-3.8260592326802896,0.0,0.0
1.3827655310621243,0.2171674823952613,0.4038739911159096,-0.16853241730662424,-0.3709588928824471,-4.017694758478882,0.0,0.0
1.4028056112224447,0.22372722315330565,0.3279870379022176,-0.17469431352458165,-0.3080948108978696,-4.178099521788668,0.0,0.0
1.4228456913827654,0.22870878602509742,0.24907814358958874,-0.17954777697635632,-0.2426731725887331,-4.305736136510301,0.0,0.0
1.442885771543086,0.23206409178090937,0.16776528779059707,-0.18305198992325852,-0.17521064734511016,-4.3994543384677725,0.0,0.0
1.4629258517034067,0.23375783776832876,0.08468729937096993,-0.18517671035511177,-0.10623602159266267,-4.458505862729138,0.0,0.0
1.4829659318637274,0.2337677653272495,0.0004963779460373935,-0.18590238499643053,-0.0362837320659377,-4.482544490306661,0.0,0.0
1.503006012024048,0.23208477872416716,-0.08414933015411712,-0.1852201427243838,0.034112113602335445,-4.471611759932529,0.0,0.0
1.5230460921843687,0.2287129218623556,-0.16859284309057812,-0.18313168222626242,0.10442302490607014,-4.426109988184674,0.0,0.0
1.5430861723446894,0.2236692235183125,-0.2521849172021543,-0.1796490706183918,0.17413058039353113,-4.346765181056295,0.0,0.0
1.56312625250501,0.21698342534496573,-0.3342899086673388,-0.17479447126061406,0.2427299678888875,-4.234583052930329,0.0,0.0
1.5831663326653307,0.20869760915367405,-0.4142908095645841,-0.16859981907173227,0.309732609444089,-4.090801648803204,0.0,0.0
1.6032064128256511,0.19886574095585363,-0.49159340989102124,-0.161106460356211,0.374667935776063,-3.916844002018591,0.0,0.0
1.6232464929859718,0.18755314895264763,-0.5656296001603001,-0.152364771678629,0.43708443387910034,-3.714273906357619,0.0,0.0
1.6432865731462925,0.1748359512539298,-0.6358598849358903,-0.14243376893948392,0.49655013695725336,-3.4847573192467887,0.0,0.0
1.6633266533066131,0.16080044680715797,-0.7017752223385925,-0.13138071383017602,0.5526527554653953,-3.2300312317572986,0.0,0.0
1.6833667334669338,0.14554248008469464,-0.7628983361231664,-0.11928072060626468,0.6049996611955668,-2.9518811239721754,0.0,0.0
1.7034068136272544,0.1291667867887715,-0.8187846647961577,-0.10621636193323512,0.6532179336514783,-2.6521274358807876,0.0,0.0
1.723446893787575,0.11178632444732563,-0.8690231170722935,-0.09227726871350801,0.6969546609863556,-2.33262086802617,0.0,0.0
1.7434869739478958,0.0935215885239151,-0.9132367961705268,-0.07755971554007812,0.7358776586714948,-1.9952458044058188,0.0,0.0
1.7635270541082164,0.07449991174646503,-0.9510838388725034,-0.06216618093595257,0.7696767302062776,-1.6419307281122797,0.0,0.0
1.783567134268537,0.05485474192901502,-0.9822584908725003,-0.04620486997428919,0.7980655480831692,-1.2746641714581353,0.0,0.0
1.8036072144288577,0.03472489173651809,-1.0064925096248465,-0.029789186325694713,0.8207841824297236,-0.8955144945966929,0.0,0.0
1.8236472945891782,0.01425375270960346,-1.0235569513457314,-0.013037141288854616,0.8376022518420049,-0.5066516073449765,0.0,0.0
1.8436873747494988,-0.006411534521598487,-1.0332643615600974,0.003929311081854615,0.8483226185354615,-0.1103686269435038,0.0,0.0
1.8637274549098195,-0.0271209615200442,-1.0354713499222856,0.020985021095989678,0.8527855007067531,0.290898604889393,0.0,0.0
1.8837675350701402,-0.04772259134408232,-1.0300814912019058,0.03800247772651334,0.8508728315261832,0.6945562386266912,0.0,0.0
1.9038076152304608,-0.06806356047383433,-1.0170484564876008,0.05485273090397159,0.8425126588729123,1.0978434151007306,0.0,0.0
1.9238476953907815,-0.08799114533500672,-0.9963792430586197,0.07140639800155402,0.8276833548791211,1.4978314705667768,0.0,0.0
1.9438877755511021,-0.10735389212303184,-0.9681373394012562,0.08753474582564034,0.8064173912043162,1.8914330520200098,0.0,0.0
1.9639278557114228,-0.12600280482632073,-0.9324456351644439,0.10311083454239416,0.7788044358376903,2.275422497749807,0.0,0.0
1.9839679358717435,-0.14379258215553692,-0.8894888664608088,0.11801070535678905,0.744993540719745,2.646468336188388,0.0,0.0
2.004008016032064,-0.16058288969976944,-0.8395153772116266,0.13211458969143905,0.7051942167324998,3.001178082022784,0.0,0.0
2.024048096192385,-0.17623964929695798,-0.7828379798594276,0.14530811435883118,0.6596762333696061,3.336154661372045,0.0,0.0
2.0440881763527052,-0.19063632362467398,-0.7198337163857988,0.15748347503877047,0.6087680339969654,3.6480628084979037,0.0,0.0
2.064128256513026,-0.2036551707308189,-0.6509423553072456,0.16854054949422892,0.5528537227729219,3.9337027160465583,0.0,0.0
2.0841683366733466,-0.2151884409929529,-0.5766635131067,0.17838792257040714,0.4923686538089107,4.190087205335183,0.0,0.0
2.1042084168336674,-0.22513948815942267,-0.4975523583234891,0.18694379723909227,0.4277937334342561,4.414517863551327,0.0,0.0
2.124248496993988,-0.2334237669511487,-0.41421393958630054,0.19413676978361585,0.3596486272261791,4.6046551329111125,0.0,0.0
2.1442885771543083,-0.2399696923257579,-0.3272962687304604,0.19990645254162798,0.28848413790060634,4.75857737253134,0.0,0.0
2.164328657314629,-0.2447193398831249,-0.2374823778683495,0.20420393414682428,0.2148740802598156,4.874824518607675,0.0,0.0
2.1843687374749496,-0.2476289727784328,-0.145481644765396,0.20699207449424842,0.13940701737120714,4.952423124777357,0.0,0.0
2.2044088176352705,-0.24866938746664227,-0.05202073441047368,0.20824563912971444,0.06267823177330174,4.990891146782922,0.0,0.0
2.224448897795591,-0.24782607804485254,0.042165471089486886,0.2079512848033887,-0.01471771631628671,4.990222636108498,0.0,0.0
2.244488977955912,-0.2450992262298215,0.1363425907515527,0.20610741392036627,-0.09219354415112142,4.950854273105957,0.0,0.0
2.2645290581162323,-0.24050353047147785,0.22978478791718182,0.20272392005932227,-0.16917469305220034,4.873617162818816,0.0,0.0
2.284569138276553,-0.23406789283107146,0.3217818820203193,0.19782184927404337,-0.24510353926394512,4.75967835360474,0.0,0.0
2.3046092184368736,-0.22583498568764002,0.4116453571715725,0.19143300240756078,-0.31944234332412913,4.610477031309356,0.0,0.0
2.3246492985971945,-0.21586072192303551,0.4987131882302244,0.1835995022065797,-0.3916750100490548,4.427660295841299,0.0,0.0
2.344689378757515,-0.20421365201511923,0.5823534953958142,0.1743733458734047,-0.46130781665874965,4.2130229276814894,0.0,0.0
2.3647294589178354,-0.190974309646225,0.6619671184447122,0.16381595920857336,-0.5278693332415665,3.968454733414769,0.0,0.0
2.3847695390781563,-0.17623452432885464,0.7369892658685182,0.15199776312372454,-0.5909098042424415,3.695898069061558,0.0,0.0
2.4048096192384767,-0.16009671554186386,0.8068904393495395,0.1389977575011244,-0.6500002811300069,3.397317112821309,0.0,0.0
2.4248496993987976,-0.14267317834786847,0.8711768596997697,0.12490312157927479,-0.7047317960924805,3.074679495552032,0.0,0.0
2.444889779559118,-0.12408536579036768,0.9293906278750393,0.10980882463879667,-0.7547148470239062,2.729950062228042,0.0,0.0
2.464929859719439,-0.10446316886246701,0.9811098463950335,0.0938172360721176,-0.7995794283339535,2.3650958566935087,0.0,0.0
2.4849699398797593,-0.08394419075514627,1.0259489053660371,0.07703772020204927,-0.8389757935034162,1.9821008947510008,0.0,0.0
2.50501002004008,-0.06267300863016077,1.0635591062492744,0.05958619866216014,-0.8725760769944564,1.5829888977404059,0.0,0.0
2.5250501002004007,-0.04080041346657571,1.0936297581792531,0.04158466189911551,-0.9000768381522313,1.1698518733657928,0.0,0.0
2.5450901803607215,-0.018482616701935878,1.1158898382319915,0.02316061147695993,-0.9212025211077791,0.7448822255229421,0.0,0.0
2.565130260521042,0.004119588505534635,1.1301102603735256,0.004446416366970279,-0.9357097554994825,0.31040592805417466,0.0,0.0
2.5851703406813624,0.026841723492337963,1.1361067493401664,-0.014421430759109396,-0.9433923563039838,-0.13108580527429886,0.0,0.0
2.6052104208416833,0.04951658882502685,1.1337432666344442,-0.03330316716990623,-0.9440868205398417,-0.57690898485655,0.0,0.0
2.6252505010020037,0.07197530657047936,1.1229358872726256,-0.05205672851688965,-0.9376780673491711,-1.0241660900051721,0.0,0.0
2.6452905811623246,0.0940484461506192,1.1036569790069923,-0.07053883109534548,-0.9241051289227914,-1.4697346928594759,0.0,0.0
2.665330661322645,0.11556723598557868,1.0759394917479737,-0.08860616060127714,-0.903366475296583,-1.910267916967506,0.0,0.0
2.685370741482966,0.1363648584944895,1.0398811254455411,-0.10611665355830936,-0.8755246478516109,-2.342208905752817,0.0,0.0
2.7054108216432864,0.1562778207329029,0.9956481119206684,-0.12293085126397298,-0.8407098852831805,-2.761821006650322,0.0,0.0
2.7254509018036073,0.17514738719230705,0.943478322970208,-0.13891330030693827,-0.799122452148265,-3.165234664783843,0.0,0.0
2.7454909819639277,0.19282105533705632,0.8836834072374637,-0.15393396878291815,-0.7510334237989943,-3.548511026539775,0.0,0.0
2.7655310621242486,0.2091540486618425,0.816649666239309,-0.16786964362944615,-0.6967837423263992,-3.9077209732645453,0.0,0.0
2.785571142284569,0.2240107968637239,0.7428374100940703,-0.18060527234164286,-0.6367814356098359,-4.239036794898726,0.0,0.0
2.8056112224448895,0.23726636865415215,0.6627785895214118,-0.1920352120310543,-0.5714969844705718,-4.538832106230587,0.0,0.0
2.8256513026052104,0.24880782033307852,0.5770725839463177,-0.20206435060035707,-0.5014569284651385,-4.803784123532887,0.0,0.0
2.845691382765531,0.2585354230050056,0.4863801335963525,-0.21060906887158823,-0.42723591356155777,-5.0309713276288335,0.0,0.0
2.8657314629258517,0.26636373358803894,0.39141552915166766,-0.21759801879586618,-0.34944749621389726,-5.217959119760548,0.0,0.0
2.885771543086172,0.2722224796619331,0.29293730369470744,-0.22297270112697865,-0.2687341165556226,-5.362866530409324,0.0,0.0
2.905811623246493,0.2760572355179414,0.19173779280041803,-0.22668783563753206,-0.18575672552767075,-5.464408426677414,0.0,0.0
2.9258517034068134,0.27782987597936737,0.08863202307129754,-0.22871152733299777,-0.10118458477328479,-5.521909852191161,0.0,0.0
2.9458917835671343,0.27751880484292435,-0.015553556822150191,-0.2290252422553995,-0.01568574612008633,-5.53529182039653,0.0,0.0
2.9659318637274548,0.27511896516402146,-0.11999198394514338,-0.22762361541246445,0.07008134214675252,-5.505030652923943,0.0,0.0
2.9859719438877756,0.27064164807269997,-0.22386585456607322,-0.22451412028137377,0.15547475655453433,-5.4320953837528325,0.0,0.0
3.006012024048096,0.264114124495844,-0.3263761788428,-0.21971663362033705,0.2398743330518352,-5.317869497272848,0.0,0.0
3.0260521042084165,0.2555791294671475,-0.42674975143482485,-0.2132629306958508,0.3226851462243125,-5.164064152621375,0.0,0.0
3.0460921843687374,0.2450942313401135,-0.5242449063517007,-0.20519614454960988,0.403339307312046,-4.9726300566622434,0.0,0.0
3.066132264529058,0.2327311182116202,-0.618155656424664,-0.19557021892517767,0.4812962812216097,-4.745674422537767,0.0,0.0
3.0861723446893787,0.2185748315105869,-0.7078143350516656,-0.18444937849211204,0.5560420216532816,-4.485388216792592,0.0,0.0
3.106212424849699,0.2027229724853734,-0.7925929512606746,-0.17190763269093132,0.6270872900590365,-4.193987408521518,0.0,0.0
3.12625250501002,0.18528490180050344,-0.871903534243499,-0.15802832153886331,0.6939655576034006,-3.8736704139605127,0.0,0.0
3.1462925851703405,0.1663809462007615,-0.9451977799870976,-0.14290370369704763,0.7562308920907842,-3.526592544671868,0.0,0.0
