time,x,x_dot,theta,theta_dot,u,x_ref,theta_ref
0.0,1.1244703552698838,0.021169405914193612,0.08392047616337006,-0.08218042541555821,8.753482151132015,0.0,0.0
0.02004008016032064,1.1282839076804863,0.19067762053012216,0.0777052481699877,-0.3107613996691183,7.850630815703633,0.0,0.0
0.04008016032064128,1.1351376039302778,0.3426848124895805,0.06740256687158103,-0.5151340649203331,7.132907561197729,0.0,0.0
0.06012024048096192,1.1447549170772577,0.4808656573489938,0.05336223631580597,-0.7020165277887528,6.3655988725424155,0.0,0.0
0.08016032064128256,1.1568409855949255,0.6043034258833866,0.03593977872969836,-0.8711228793053803,5.557781899554575,0.0,0.0
0.1002004008016032,1.1710858808949887,0.7122447650031539,0.015494341880107922,-1.022271842479522,4.712333189195809,0.0,0.0
0.12024048096192384,1.187165494618004,0.8039806861507574,-0.007610077309650378,-1.155220959487915,3.8306651018882016,0.0,0.0
0.1402805611222445,1.2047419104750043,0.8788207928500253,-0.0330029512256315,-1.269643695799056,2.913663332716477,0.0,0.0
0.16032064128256512,1.2234636377088426,0.936086361691911,-0.060305685156305244,-1.365136696533687,1.9622162282669626,0.0,0.0
0.18036072144288576,1.2429659180490285,0.9751140170092923,-0.08913055157236065,-1.44124332080277,0.9776767286459084,0.0,0.0
0.2004008016032064,1.2628712852749744,0.995268361297298,-0.11908033916652351,-1.4974893797081432,-0.03769505857518418,0.0,0.0
0.22044088176352705,1.2827905417588408,0.9959628241933183,-0.1497489026378307,-1.5334281735653592,-1.080308869879187,0.0,0.0
0.24048096192384769,1.30232430104362,0.9766879642389686,-0.1807227372310089,-1.54869172965891,-2.144848344267456,0.0,0.0
0.2605210420841683,1.3210652274782422,0.9370463217311047,-0.2115836358466892,-1.5430449307840157,-3.223913016850938,0.0,0.0
0.280561122244489,1.33860108289105,0.8767927706403844,-0.24191242079246955,-1.5164392472890165,-4.307716832198231,0.0,0.0
0.3006012024048096,1.3545186644649483,0.7958790786949208,-0.27129368108211155,-1.4690630144820997,-5.383877291009992,0.0,0.0
0.32064128256513025,1.3684086824961292,0.6945009015590432,-0.2993213899463368,-1.4013854432112627,-6.437354637609484,0.0,0.0
0.3406813627254509,1.3798715725814972,0.5731445042683968,-0.32560521999068576,-1.3141915022174495,-7.450627456797626,0.0,0.0
0.3607214428857715,1.3885241538408117,0.43262906296572934,-0.349777306168091,-1.2086043088702616,-8.404214448265499,0.0,0.0
0.3807615230460922,1.3940069236108192,0.27413848850037376,-0.37149911818057524,-1.0860906006242133,-9.277630276251774,0.0,0.0
0.4008016032064128,1.3959916269694788,0.09923516793297943,-0.3904680009274435,-0.9484441373434126,-9.999999951785094,0.0,0.0
0.42084168336673344,1.3942081946201268,-0.08917161746759578,-0.4064500352754456,-0.799101717400106,-9.999999999917712,0.0,0.0
0.4408817635270541,1.3886646405377951,-0.2771777041165876,-0.41957784041615886,-0.6563902570356637,-9.999999999999993,0.0,0.0
0.4609218436873747,1.3793675897143525,-0.4648525411721284,-0.4299608424751555,-0.519150102949831,-9.999999671217113,0.0,0.0
0.48096192384769537,1.3663223131445301,-0.6522638284911169,-0.43768589177376643,-0.38625246493054854,-9.999999982947752,0.0,0.0
0.501002004008016,1.3495327638271093,-0.839477465871037,-0.4428177904254975,-0.2565949325865537,-9.999999992333471,0.0,0.0
0.5210420841683366,1.3290016093082708,-1.0265577259419274,-0.4453997082963172,-0.12909589354098486,-9.999999999788617,0.0,0.0
0.5410821643286573,1.3047302558226967,-1.2135676742787005,-0.4454534702723893,-0.0026880988036051545,-9.99999999944639,0.0,0.0
0.561122244488978,1.276718862363557,-1.4005696729569885,-0.44297970640348666,0.12368819344513268,-9.999999999979115,0.0,0.0
0.5811623246492986,1.2449663434305842,-1.587625946648642,-0.43795786035575257,0.25109230238670355,-9.999999999948118,0.0,0.0
0.6012024048096192,1.2094703603085062,-1.7747991561039018,-0.43034605597746695,0.38059021891428196,-9.99999999993086,0.0,0.0
0.6212424849699398,1.1702273016549252,-1.9621529326790494,-0.4200808258932998,0.5132615042083579,-9.999999999955445,0.0,0.0
0.6412825651302605,1.1272322552320497,-2.149752321143777,-0.4070767107167764,0.650205758826168,-9.999999999997852,0.0,0.0
0.6613226452905812,1.0804789739198086,-2.337664065612057,-0.3912257433057953,0.7925483705490562,-9.99999999999905,0.0,0.0
0.6813627254509018,1.029959840872056,-2.5259566523876322,-0.37239684021479325,0.9414451545501026,-9.999999999995376,0.0,0.0
0.7014028056112224,0.9756658410149052,-2.7146999928575455,-0.35043513296837203,1.098085362321061,-9.999999999597264,0.0,0.0
0.721442885771543,0.917586549266298,-2.9039645874303575,-0.3251612860067485,1.2636923480811768,-9.999999188909122,0.0,0.0
0.7414829659318637,0.8557101504560694,-3.0938199405114317,-0.2963708677533835,1.4395209126682502,-9.89722195075621,0.0,0.0
0.7615230460921844,0.7900633678110601,-3.2823391322504616,-0.26389100881546435,1.6239929468959577,-9.064275167280933,0.0,0.0
0.781563126252505,0.7209554433368356,-3.4553962237112272,-0.22793506682581605,1.7977970994824155,-8.196573082864795,0.0,0.0
0.8016032064128256,0.6487095636048225,-3.6122939866006556,-0.1887246533692809,1.9605206728267568,-7.285457635280975,0.0,0.0
0.8216432865731462,0.5736666574932994,-3.752145305576152,-0.14649820543368328,2.111322396779881,-6.327210743274056,0.0,0.0
0.8416833667334669,0.4961872026435138,-3.8739727424892783,-0.10151613749379061,2.249103396994633,-5.315167976014401,0.0,0.0
0.8617234468937875,0.416654069563525,-3.9766566539994375,-0.05406684393651739,2.372464677863661,-4.241491028392826,0.0,0.0
0.8817635270541082,0.3354756800367784,-4.05891947633733,-0.004472370833584684,2.479723655146635,-3.0979772096915372,0.0,0.0
0.9018036072144289,0.25308912616857054,-4.119327693410393,0.046906917694726616,2.568964426415565,-1.8767837987018783,0.0,0.0
0.9218436873747494,0.16996293352268493,-4.156309632294279,0.09966929118156888,2.6381186743421132,-0.5711600850468013,0.0,0.0
0.9418837675350701,0.08659916316285705,-4.168188517991394,0.15337076130647603,2.685073506245358,0.8238259998209347,0.0,0.0
0.9619238476953907,0.0035345750736448384,-4.15322940446061,0.2075267304901801,2.7077984591852045,2.310588127920545,0.0,0.0
0.9819639278557114,-0.07865937933341492,-4.109697720352988,0.26161632890375663,2.7044799206788257,3.888370942419309,0.0,0.0
1.002004008016032,-0.1593779101476564,-4.035926540712073,0.31508929950995496,2.6736485303099164,5.552635547601054,0.0,0.0
1.0220440881763526,-0.23798571314019606,-3.930390149626983,0.3673750112936266,2.614285589183583,7.294418843211407,0.0,0.0
1.0420841683366733,-0.3138213787952071,-3.7917832827505507,0.41789298600538094,2.5258987355877176,9.09953269479901,0.0,0.0
1.062124248496994,-0.3862035575679771,-3.6191089386384987,0.46606428991165927,2.4085651953139178,9.999999999997264,0.0,0.0
1.0821643286573146,-0.45480352864607587,-3.4299985539049382,0.5118112094589946,2.2873459773667664,10.0,0.0,0.0
1.1022044088176353,-0.5196396518949147,-3.241806162441942,0.5555168606895191,2.1852825615262277,10.0,0.0,0.0
1.122244488977956,-0.580729011195971,-3.054467965052817,0.5975495335166722,2.1016336413576515,10.0,0.0,0.0
1.1422845691382766,-0.6380873052276587,-2.8679147015843864,0.6382644243370914,2.0357445410209603,10.0,0.0,0.0
1.1623246492985972,-0.6917287962598598,-2.6820745516100564,0.6780056223743068,1.9870599018607698,10.0,0.0,0.0
1.1823647294589177,-0.7416662882030005,-2.4968745971570363,0.7171082447359513,1.9551311180822228,10.0,0.0,0.0
1.2024048096192383,-0.7879111120722952,-2.3122411934647396,0.7559006455715532,1.939620041780101,10.0,0.0,0.0
1.222444889779559,-0.8304731019825033,-2.1280994955104053,0.7947066468763636,1.940300065240521,9.999999999999998,0.0,0.0
1.2424849699398797,-0.8693605481562892,-1.9443723086892903,0.8338477540367246,1.9570553580180512,9.999999999994035,0.0,0.0
1.2625250501002003,-0.9045801155675938,-1.7609783705652307,0.8736453296232654,1.9898787793270345,10.0,0.0,0.0
1.282565130260521,-0.9361367180696228,-1.5778301251014513,0.9144227054349982,2.038868790586639,10.0,0.0,0.0
1.3026052104208417,-0.9640333384610664,-1.394831019572179,0.956507216360757,2.104225546287942,10.0,0.0,0.0
1.3226452905811623,-0.9882707851933141,-1.211872336612387,1.0002321410158095,2.186246232752624,9.999999999999993,0.0,0.0
1.342685370741483,-1.0088473765931683,-1.0288295699927057,1.0459385338978164,2.285319644100345,10.0,0.0,0.0
1.3627254509018036,-1.0257585438845245,-0.8455583645678135,1.0939769323607298,2.4019199231456634,9.999999999999988,0.0,0.0
1.3827655310621243,-1.038996345325868,-0.6618900720671693,1.1447089191656628,2.5365993402466502,9.999999999999998,0.0,0.0
1.4028056112224447,-1.0485488859391225,-0.4776270306627269,1.198508517526906,2.6899799180621597,10.0,0.0,0.0
1.4228456913827654,-1.054399641254304,-0.292537765759067,1.2557633896657692,2.862743606943164,9.999999999999995,0.0,0.0
1.442885771543086,-1.0565266901246024,-0.10635244351492315,1.3168758002406176,3.0556205287424194,9.999999999999998,0.0,0.0
1.4629258517034067,-1.054901872173719,0.08124089754418068,1.3822632895030267,3.2693744631204535,10.0,0.0,0.0
1.4829659318637274,-1.0494899014213899,0.2705985376164481,1.4523589722446455,3.5047841370809354,10.0,0.0,0.0
1.503006012024048,-1.0402474912196693,0.4621205100860239,1.5276113288294482,3.762617829240134,9.9999999999999,0.0,0.0
1.5230460921843687,-1.0271225796028225,0.6562455808423404,1.6084832705310916,4.043597085082176,9.999999999999991,0.0,0.0
1.5430861723446894,-1.010053792025305,0.8534393788758715,1.695450123883272,4.348342667609013,10.0,0.0,0.0
1.56312625250501,-0.988970344356436,1.054172383443445,1.7889959625061889,4.677291931145839,9.999999999999817,0.0,0.0
1.5831663326653307,-0.9637926768928049,1.2588833731815587,1.8896073908064501,5.030571415013068,9.999999999999996,0.0,0.0
1.6032064128256511,-0.9344342216385562,1.4679227627124374,1.9977634282861125,5.407801873983118,9.999999999999858,0.0,0.0
1.6232464929859718,-0.9008048340439204,1.6814693797317866,2.113919561030107,5.8078066371997155,-9.999999999713943,0.0,0.0
1.6432865731462925,-0.8702240836630507,1.529037519043487,2.232744526469401,5.941248271964686,9.99999999995839,0.0,0.0
1.6633266533066131,-0.8352583425392626,1.7482870561894053,2.3602450747560746,6.375027414333681,-9.999999999959257,0.0,0.0
1.6833667334669338,-0.8033811139617111,1.5938614288775756,2.4885968988398512,6.417591204188832,9.999999999960256,0.0,0.0
1.7034068136272544,-0.7670940998087189,1.8143507076496093,2.625769535359155,6.8586318259651735,-9.999999999999996,0.0,0.0
1.723446893787575,-0.7340754928532353,1.650930347774184,2.761578622725829,6.790454368333709,6.491848609008628,0.0,0.0
1.7434869739478958,-0.6981206819005366,1.7977405476349342,2.903654982324192,7.103817979918151,-10.0,0.0,0.0
1.7635270541082164,-0.665755817404743,1.6182432247896774,3.041886448879822,6.9115733277815,-1.7011029087514586,0.0,0.0
1.783567134268537,-0.633933206818227,1.591130529325801,3.1798940157818256,6.900378345100177,-9.999999999997277,0.0,0.0
1.8036072144288577,-0.6060589760402678,1.3937115388979593,3.3117620368946,6.593401055638716,-8.054899736713223,0.0,0.0
1.8236472945891782,-0.5815124836359834,1.2273246202142196,3.4377184696745764,6.297821638998807,-9.99999999999935,0.0,0.0
1.8436873747494988,-0.5611480435367244,1.018222004962947,3.5559638010191823,5.9122665672303,-9.999999999998478,0.0,0.0
1.8637274549098195,-0.5450159255772786,0.806605897972289,3.666035659159327,5.503592907007248,-10.0,0.0,0.0
1.8837675350701402,-0.5331284125145964,0.594375653134113,3.7676572867563105,5.08108137984917,-8.49657049905722,0.0,0.0
1.9038076152304608,-0.5248959863483733,0.41162130831115734,3.861395601464327,4.686915735400823,-9.999999999999876,0.0,0.0
1.9238476953907815,-0.5208571960322936,0.20193951580398467,3.9465329646294838,4.256868158257826,-3.372724129530651,0.0,0.0
1.9438877755511021,-0.5184698466789496,0.11936746766720376,4.025718751612225,3.9592893491370575,-10.0,0.0,0.0
1.9639278557114228,-0.5201825237169732,-0.08563385190117799,4.096463536572746,3.5372392480260304,1.8140670912118733,0.0,0.0
1.9839679358717435,-0.5215390836924392,-0.06782799877330069,4.162720241155685,3.312835229146945,-9.999999999991669,0.0,0.0
2.004008016032064,-0.5268955208409708,-0.2678218574265831,4.220833840661597,2.905679975295589,4.857934764195443,0.0,0.0
2.024048096192385,-0.5307084854717489,-0.1906482315389049,4.274858960721528,2.701256002996537,-9.999999999999934,0.0,0.0
2.0440881763527052,-0.5384282891296965,-0.38599018289738285,4.321079837006026,2.3110438142249037,6.795912178959677,0.0,0.0
2.064128256513026,-0.54383789423077,-0.27048025505367507,4.363189409721218,2.1054786357595616,-3.0882683045708816,0.0,0.0
2.0841683366733466,-0.5505424450250014,-0.3352275397115716,4.399113134614559,1.7961862446670844,5.989606909058301,0.0,0.0
2.1042084168336674,-0.5551897578834843,-0.23236564292415052,4.4303969333097095,1.5641899347575103,2.7541962897423864,0.0,0.0
2.124248496993988,-0.5589449577157851,-0.18775999161504123,4.456408641171474,1.3005853930882245,5.61537976543922,0.0,0.0
2.1442885771543083,-0.5607448387297285,-0.08999405069716701,4.477477647090264,1.0534502959395065,5.48504038176504,0.0,0.0
2.164328657314629,-0.5606231525508124,0.0060843089458013505,4.493502186717213,0.8012269813474153,6.155331231346787,0.0,0.0
2.1843687374749496,-0.5583241786962065,0.11494869273029158,4.504499341093511,0.5498577188149067,6.323316404089994,0.0,0.0
2.2044088176352705,-0.5537786171588741,0.22727807686662072,4.510441787106537,0.29712230065132056,6.369526129425016,0.0,0.0
2.224448897795591,-0.5469647051122021,0.340695602333604,4.5113093685593935,0.043379072642789285,6.214440731445335,0.0,0.0
2.244488977955912,-0.5379372867676391,0.45137091722814726,4.507081754041939,-0.2113807258727231,5.888820584387925,0.0,0.0
2.2645290581162323,-0.5268166571343953,0.5560314816621902,4.497740932725138,-0.4670410658400293,5.407863840295207,0.0,0.0
2.284569138276553,-0.5137830814393624,0.6516787847516485,4.483269452209011,-0.7235740258063685,4.7925259288673425,0.0,0.0
2.3046092184368736,-0.4990692132643285,0.7356934087516905,4.463647296820746,-0.9811077694132462,4.064916590167074,0.0,0.0
2.3246492985971945,-0.4829520947795884,0.8058559242370066,4.438847534242074,-1.2399881289336216,3.247344978439251,0.0,0.0
2.344689378757515,-0.46574509441753953,0.8603500181024444,4.408831284734774,-1.5008124753649947,2.3612412970348284,0.0,0.0
2.3647294589178354,-0.4477901803168468,0.8977457050346357,4.373542515931822,-1.764438440147575,1.4263542505980893,0.0,0.0
2.3847695390781563,-0.4294508207250095,0.9169679795918653,4.332903119712047,-2.0319698109887314,0.46034960128328084,0.0,0.0
2.4048096192384767,-0.41110564478154127,0.9172587971734114,4.2868086961444645,-2.304721178379141,-0.5212808267586636,0.0,0.0
2.4248496993987976,-0.39314286690303657,0.8981388939252363,4.235125456404532,-2.5841619869966443,-1.505168713018019,0.0,0.0
2.444889779559118,-0.37595540340517825,0.8593731748929173,4.177688660545603,-2.871839792946465,-2.479880630957482,0.0,0.0
2.464929859719439,-0.3599365295172703,0.8009436943953973,4.114303064504208,-3.1692798020697373,-3.4357714846739102,0.0,0.0
2.4849699398797593,-0.3454759032749621,0.7230313121154095,4.044745921909592,-3.477857129730791,-4.365062566246721,0.0,0.0
2.50501002004008,-0.3329558233892303,0.6260039942865887,3.9687731287653953,-3.798639657209824,-5.261879097025153,0.0,0.0
2.5250501002004007,-0.32274753045379523,0.5104146467717549,3.886129215413884,-4.1321956675755676,-6.121999920363812,0.0,0.0
2.5450901803607215,-0.31520721781798344,0.37701563179059006,3.7965621012137953,-4.4783557100044264,-6.941998928059825,0.0,0.0
2.565130260521042,-0.31067117577286363,0.22680210225599115,3.699843862867303,-4.835911917324623,-7.717290941609969,0.0,0.0
2.5851703406813624,-0.30944911075570375,0.06110325085799523,3.5957992584421916,-5.202230221255576,-8.439219823979581,0.0,0.0
2.6052104208416833,-0.311814440428725,-0.11826648365106388,3.4843439387029016,-5.572765986964498,-9.091705485907521,0.0,0.0
2.6252505010020037,-0.31799049041190225,-0.3088024991588614,3.3655334712721787,-5.9405233715361465,-9.64817566108006,0.0,0.0
2.6452905811623246,-0.32813218349757245,-0.5070846542835096,3.2396217177593143,-6.295587675643224,-9.999999630121618,0.0,0.0
2.665330661322645,-0.34227693875376225,-0.7072377628094899,3.1071628028801026,-6.6229457439605826,-9.999999999638296,0.0,0.0
2.685370741482966,-0.3602842985826713,-0.9003679914454527,2.96911931278022,-6.902174504994133,-9.999999999630347,0.0,0.0
2.7054108216432864,-0.38197799372489816,-1.0846847571113414,2.8266402542328493,-7.123952927368537,-9.999999065325724,0.0,0.0
2.7254509018036073,-0.40715832116767986,-1.2590163721390843,2.6810119255361866,-7.281416434833123,-9.454463233319997,0.0,0.0
2.7454909819639277,-0.43540974896175216,-1.4125713897036156,2.533871403763236,-7.357026088647525,-8.429865793665327,0.0,0.0
2.7655310621242486,-0.46615392572483394,-1.5372088381540898,2.3870185333326956,-7.3426435215270205,-6.963591228853959,0.0,0.0
2.785571142284569,-0.49869038423897916,-1.62682292570726,2.24223335774629,-7.239258779320279,-5.006644423268176,0.0,0.0
2.8056112224448895,-0.5321969087492564,-1.6753262255138648,2.101144257439684,-7.054455015330315,-2.484186170965885,0.0,0.0
2.8256513026052104,-0.5657098041647699,-1.6756447707756734,1.9651194290682927,-6.801241418569561,0.6999965096203726,0.0,0.0
2.845691382765531,-0.5980854852548106,-1.6187840545020389,1.8351748988368088,-6.497226511574189,4.617138919188401,0.0,0.0
2.8657314629258517,-0.6279623494952306,-1.4938432120209966,1.7118813583671115,-6.164677023484865,9.106722949899641,0.0,0.0
2.885771543086172,-0.6538009480838135,-1.2919299294291489,1.5952570019197814,-5.831217822366509,9.999999999999998,0.0,0.0
2.905811623246493,-0.6753784251044028,-1.0788738510294658,1.4846634465102533,-5.529677770476406,9.99999999988614,0.0,0.0
2.9258517034068134,-0.6927864383589947,-0.87040066272959,1.3793867440112013,-5.263835124952597,9.999999999906342,0.0,0.0
2.9458917835671343,-0.7061033051071894,-0.6658433374097406,1.2787123114263548,-5.033721629242328,9.99999997747307,0.0,0.0
2.9659318637274548,-0.7153935290759027,-0.4645111984356619,1.181927206492705,-4.839255246682481,9.987114410209886,0.0,0.0
2.9859719438877756,-0.7207128919173916,-0.2659681420744461,1.0883228218899907,-4.680219230135721,6.317267993494768,0.0,0.0
3.006012024048096,-0.7234542330693959,-0.13706705760021323,0.9981309086373512,-4.509595662631979,2.925180062625568,0.0,0.0
3.0260521042084165,-0.7249171779497772,-0.07314724401905918,0.9118393655090876,-4.314577156413182,0.07099850098895732,0.0,0.0
3.0460921843687374,-0.7262117071643688,-0.06472646072957783,0.8300392478405891,-4.090005883424926,-2.1953623823936232,0.0,0.0
3.066132264529058,-0.7282357609006557,-0.10120268681434202,0.7533136267470926,-3.8362810546748296,-3.964675336191605,0.0,0.0
3.0861723446893787,-0.7317041122773374,-0.1734175688340871,0.6821870391753907,-3.556329378585092,-5.325843761071507,0.0,0.0
3.106212424849699,-0.7371771654917647,-0.2736526607213619,0.6170980329832434,-3.254450309607363,-6.3497794548637705,0.0,0.0
3.12625250501002,-0.745084163620153,-0.3953499064194121,0.5583851728591629,-2.9356430062040264,-7.088563789370379,0.0,0.0
3.1462925851703405,-0.7557405810667892,-0.5328208723318117,0.506281230460923,-2.6051971199119963,-7.58053567235225,0.0,0.0
3.1663326653306614,-0.7693614921105142,-0.6810455521862482,0.46091337076796474,-2.2683929846479116,-7.855054556624446,0.0,0.0
3.186372745490982,-0.786072482498422,-0.8355495193953918,0.42230793944213924,-1.9302715662912746,-7.935860678934691,0.0,0.0
3.2064128256513023,-0.8059191003027115,-0.9923308902144752,0.3903985616852605,-1.5954688878439374,-7.843107735531189,0.0,0.0
3.226452905811623,-0.8288753462475607,-1.1478122972424538,0.36503624500365456,-1.2681158340802963,-7.594427629404389,0.0,0.0
3.2464929859719436,-0.8548513778631733,-1.2988015807806317,0.34600025701474807,-0.951799399445324,-7.20538536013763,0.0,0.0
3.2665330661322645,-0.8837004304151439,-1.4424526275985277,0.33300875597849705,-0.6495750518125512,-6.68960723671102,0.0,0.0
