time,x,x_dot,theta,theta_dot,u,x_ref,theta_ref
0.0,1.8240068385159014,-0.058463637984170626,0.1313779541098123,-0.07014357538359595,9.999999999999934,0.0,0.0
0.02004008016032064,1.8266977690849935,0.1345465284546002,0.12500806301115955,-0.31849455493263645,9.999999999992776,0.0,0.0
0.04008016032064128,1.8332513564870676,0.32767937010370957,0.11362566637746443,-0.5691198316847554,9.999999999999993,0.0,0.0
0.06012024048096192,1.8436719963444173,0.5210319928674826,0.0971499613301382,-0.8237852523663117,9.999999999999986,0.0,0.0
0.08016032064128256,1.8579658446885767,0.7146924172079712,0.07546543796982935,-1.0842261680154421,9.580090975102985,0.0,0.0
0.1002004008016032,1.8759767294251903,0.9005442368306751,0.04866774041583074,-1.3398848776999306,8.446283716783306,0.0,0.0
0.12024048096192384,1.8972707821994845,1.0647026387147143,0.017240069006604894,-1.5713835704612922,7.210137499577164,0.0,0.0
0.1402805611222445,1.9213742474194173,1.2051732609966417,-0.018297159768881945,-1.776861438774342,5.903454623990375,0.0,0.0
0.16032064128256512,1.9477854544343158,1.3205603507449266,-0.057400774108596064,-1.9551807169857058,4.5283372734074385,0.0,0.0
0.18036072144288576,1.975975446713073,1.4094996139378617,-0.09950362864224552,-2.1051427266824723,3.08001400715566,0.0,0.0
0.2004008016032064,2.0053862038214896,1.4705378554208322,-0.1440111862242893,-2.2253778791021888,1.5450315980673726,0.0,0.0
0.22044088176352705,2.0354257689297803,1.5019782554145453,-0.1902949436941678,-2.3141878734939256,-0.08147366632689423,0.0,0.0
0.24048096192384769,2.0654670102449995,1.5020620657609534,-0.23769266717214477,-2.369886173898849,-1.7981986769175005,0.0,0.0
0.2605210420841683,2.094849011900785,1.4691000827892857,-0.28551357907067176,-2.3910455949263505,-3.614062572253971,0.0,0.0
0.280561122244489,2.1228746254942306,1.4012806796722708,-0.33303856317877406,-2.3762492054051148,-5.518671285163801,0.0,0.0
0.3006012024048096,2.14881554172093,1.2970458113349672,-0.37953123401799316,-2.324633541960956,-7.493632136016872,0.0,0.0
0.32064128256513025,2.1719202876393005,1.1552372959185295,-0.42425194885829326,-2.236035742015005,-9.593261467254225,0.0,0.0
0.3406813627254509,2.191393857807648,0.9736785084173776,-0.466430799414781,-2.108942527824386,-10.0,0.0,0.0
0.3607214428857715,2.2070970289794114,0.7851585585881704,-0.5062039346464745,-1.9886567615846749,-10.0,0.0,0.0
0.3807615230460922,2.219046601311807,0.597478616619775,-0.5439050483419865,-1.8850556847755995,-10.0,0.0,0.0
0.4008016032064128,2.2272581537739486,0.41057762310707835,-0.5798521451427617,-1.7973548400387624,-10.0,0.0,0.0
0.42084168336673344,2.2317460263360593,0.22439362810552496,-0.6143492704121128,-1.724856263467556,-9.999999999999995,0.0,0.0
0.4408817635270541,2.2325233427003575,0.038865818214914416,-0.6476883952529132,-1.666956242040019,-9.999999999999979,0.0,0.0
0.4609218436873747,2.22960205375083,-0.14606444747639055,-0.6801513845875166,-1.6231494667301678,-10.0,0.0,0.0
0.48096192384769537,2.2229929871802843,-0.3304533285272819,-0.7120119991946956,-1.5930307303589542,-10.0,0.0,0.0
0.501002004008016,2.212705892497125,-0.5143547341579704,-0.7435378992050685,-1.5762950005186434,-10.0,0.0,0.0
0.5210420841683366,2.1987494731425796,-0.6978209677272484,-0.7749926281845017,-1.5727364489716593,-10.0,0.0,0.0
0.5410821643286573,2.181131399034461,-0.8809037054059314,-0.8066375647454332,-1.58224682804658,-10.0,0.0,0.0
0.561122244488978,2.1598582937160327,-1.0636552659214327,-0.8387338335376477,-1.6048134396107279,-8.08750107035491,0.0,0.0
0.5811623246492986,2.1356529806840028,-1.2102656516014876,-0.8722628815509776,-1.6764524006664943,-9.999999999998447,0.0,0.0
0.6012024048096192,2.1078009487849934,-1.392601594950462,-0.906776355119875,-1.725673678444869,-4.677406882517743,0.0,0.0
0.6212424849699398,2.0782921618806043,-1.4754393452194574,-0.944386960861413,-1.8805302870769063,-9.999999999914804,0.0,0.0
0.6412825651302605,2.045136373849422,-1.6577894015591208,-0.9835531790950025,-1.9583109116794701,-6.769931380954802,0.0,0.0
0.6613226452905812,2.009532743984278,-1.7801814932572053,-1.025578135281968,-2.1012478093482674,-10.0,0.0,0.0
0.6813627254509018,1.9702755961931806,-1.9628573895548613,-1.0697871125620864,-2.210448864005926,-10.0,0.0,0.0
0.7014028056112224,1.9273591689991827,-2.1458213596998954,-1.1165154650504738,-2.336417624419374,-9.999999999999991,0.0,0.0
0.721442885771543,1.8807743832860273,-2.3292392856577684,-1.1661110544130056,-2.479779468126587,-9.99999999998686,0.0,0.0
0.7414829659318637,1.8305082453337589,-2.513306897613426,-1.2189354914230954,-2.6412218505044986,-9.999999999999932,0.0,0.0
0.7615230460921844,1.7765431562239373,-2.698254455491073,-1.2753651864356503,-2.82148475062774,-10.0,0.0,0.0
0.781563126252505,1.7188561336410024,-2.884351129146749,-1.335792167707084,-3.0213490635716895,-9.99999999999767,0.0,0.0
0.8016032064128256,1.6574179630291976,-3.07190853059024,-1.4006246086809024,-3.2416220486909184,-10.0,0.0,0.0
0.8216432865731462,1.5921923116448675,-3.2612825692165086,-1.4702869746391785,-3.483118297913795,-10.0,0.0,0.0
0.8416833667334669,1.5231348634322577,-3.4528724106304884,-1.5452196464345738,-3.746633589769764,-9.999999999042288,0.0,0.0
0.8617234468937875,1.4501925676632703,-3.647114788449368,-1.6258777906577184,-4.032907211157231,-9.999999999999165,0.0,0.0
0.8817635270541082,1.3733031434454812,-3.8444712108894534,-1.7127291020794952,-4.342565571088839,-9.999999999964746,0.0,0.0
0.9018036072144289,1.292395049587625,-4.045404692892807,-1.8062498201632295,-4.676035904186714,-9.999999999999964,0.0,0.0
0.9218436873747494,1.207388218622697,-4.250341548246409,-1.906918088503386,-5.033413417007828,-9.999999999999996,0.0,0.0
0.9418837675350701,1.1181959659759384,-4.459612632337925,-2.015203263048723,-5.414258727266838,-9.492870366730871,0.0,0.0
0.9619238476953907,1.024915375598855,-4.6640295188541705,-2.131428828288529,-5.8112782619903065,-5.102831782490833,0.0,0.0
0.9819639278557114,0.9290898751447355,-4.791275022705971,-2.2546596756884325,-6.16154236999517,0.003630632461316452,0.0,0.0
1.002004008016032,0.8325812555763511,-4.825430978419219,-2.383092465558929,-6.421639493524828,3.995021069964217,0.0,0.0
1.0220440881763526,0.7369062199392651,-4.7837517818543,-2.51466014900088,-6.578384172097555,7.0375904049224385,0.0,0.0
1.0420841683366733,0.6432939893157262,-4.680611531176942,-2.6471710386813743,-6.625544484024705,9.747595263163554,0.0,0.0
1.062124248496994,0.5529062755071691,-4.519385690427859,-2.7782154987831738,-6.552223005089968,9.999999999999996,0.0,0.0
1.0821643286573146,0.4659957446946268,-4.345526540627114,-2.9064764501222964,-6.413047566956134,9.99999999998575,0.0,0.0
1.1022044088176353,0.38272117530243704,-4.163728469609486,-3.0308057506501016,-6.216465026390255,10.0,0.0,0.0
1.122244488977956,0.3032306250472515,-3.9745275127592756,-3.150147032647946,-5.96706409989223,10.0,0.0,0.0
1.1422845691382766,0.2276507092250038,-3.7789957911123855,-3.2635759737003176,-5.671447052618578,9.999999999999737,0.0,0.0
1.1623246492985972,0.15607969836671115,-3.5785505429146323,-3.3703249315735713,-5.3374478936626915,9.999999999999941,0.0,0.0
1.1823647294589177,0.08858495811523498,-3.3747370125738088,-3.4697900390862197,-4.973255375632432,9.999999999994577,0.0,0.0
1.2024048096192383,0.02520423770429986,-3.169036020546756,-3.5615229861179065,-4.586647351584336,10.0,0.0,0.0
1.222444889779559,-0.03405031820173719,-2.9627277953018525,-3.6452121944989786,-4.184460419053604,9.99999999999984,0.0,0.0
1.2424849699398797,-0.08918671681191435,-2.756819930508858,-3.7206585937752292,-3.772319963812523,10.0,0.0,0.0
1.2625250501002003,-0.14022731333692434,-2.552029826250499,-3.78775030862722,-3.354585742599538,10.0,0.0,0.0
1.282565130260521,-0.18720339864269087,-2.348804265288326,-3.8464391129102564,-2.9344402141518158,9.999999999973667,0.0,0.0
1.3026052104208417,-0.23015057589222548,-2.147358862476731,-3.8967201251555883,-2.514050612266596,9.999999999999998,0.0,0.0
1.3226452905811623,-0.269105059176425,-1.947724164209976,-3.9386152105164824,-2.094754268044717,9.999999999999968,0.0,0.0
1.342685370741483,-0.3041008603848597,-1.7497900604217322,-3.972159952072587,-1.677237077805217,9.999999999996453,0.0,0.0
1.3627254509018036,-0.3351677458666692,-1.5533442740904748,-3.997393773782879,-1.2616910855146006,9.999999999999998,0.0,0.0
1.3827655310621243,-0.36232981663393427,-1.358103538363252,-4.014352724946588,-0.8479475581854594,9.999999999999996,0.0,0.0
1.4028056112224447,-0.3856045723845014,-1.1637377875283565,-4.023064478019009,-0.43558765362108043,9.999999999999996,0.0,0.0
1.4228456913827654,-0.4050023443575483,-0.9698885986523447,-4.023545185749815,-0.024035386540279258,9.999999999996978,0.0,0.0
1.442885771543086,-0.42052601512170307,-0.7761835382077404,-4.01579795509972,0.38736153250474714,9.99999999800155,0.0,0.0
1.4629258517034067,-0.43217097959499684,-0.5822482236646888,-3.9998128085884668,0.7992573255626718,9.99999999673093,0.0,0.0
1.4829659318637274,-0.43992533855233723,-0.3877179478670204,-3.9755681142526544,1.2122347167906065,9.999999999999973,0.0,0.0
1.503006012024048,-0.4437703526872824,-0.192250706747258,-3.9430335741594447,1.626727004660485,9.999998441959683,0.0,0.0
1.5230460921843687,-0.4436812218757047,0.004456540578884199,-3.9021749705544027,2.0429301802521014,9.952625282186746,0.0,0.0
1.5430861723446894,-0.439646150471562,0.2017535702071328,-3.852980373143427,2.459729870548784,9.878014337672168,0.0,0.0
1.56312625250501,-0.43166072466599276,0.39927129027846453,-3.795463677165207,2.8758347989110105,9.940371359167992,0.0,0.0
1.5831663326653307,-0.41966817325460193,0.5996275705695423,-3.7296047109317416,3.292948311673265,9.99999999999977,0.0,0.0
1.6032064128256511,-0.40361506692229304,0.8026553166154455,-3.6554214170621155,3.7091646934813025,9.999999966771878,0.0,0.0
1.6232464929859718,-0.3834772245290612,1.0068921196615932,-3.5730172468932153,4.120208508445005,9.999999999988528,0.0,0.0
1.6432865731462925,-0.35924212376691517,1.2117550381073001,-3.4825765419264942,4.52203524833606,9.99999999999987,0.0,0.0
1.6633266533066131,-0.3309144664636981,1.4163828651608532,-3.384388923424212,4.909380925114095,9.999999999999831,0.0,0.0
1.6833667334669338,-0.29852177855094786,1.619634395637513,-3.278873526192915,5.275769861564864,9.999999999999995,0.0,0.0
1.7034068136272544,-0.2621191444667069,1.8201317042120457,-3.1665993452219645,5.613709048547523,9.999999999999995,0.0,0.0
1.723446893787575,-0.2217918899056679,2.0163627280519507,-3.0482968177847742,5.915126371859513,9.999999999999996,0.0,0.0
1.7434869739478958,-0.17765497789293577,2.2068456006366066,-2.924855651596504,6.17205830941352,9.999999999998069,0.0,0.0
1.7635270541082164,-0.1298482477005542,2.390336509619078,-2.7973055723604214,6.37750396180413,9.999999999999996,0.0,0.0
1.783567134268537,-0.07852745166592935,2.5660398017312422,-2.6667802323753116,6.526266999255492,9.99999999999991,0.0,0.0
1.8036072144288577,-0.023852130597643156,2.7337660534143096,-2.534469014100451,6.615560913743017,9.99999999991577,0.0,0.0
1.8236472945891782,0.034027709744819765,2.893992017123146,-2.401564979399288,6.645201735058162,9.999999999946791,0.0,0.0
1.8436873747494988,0.09498382254864601,3.0478056401913123,-2.269218019983346,6.617347970797087,9.060257624616073,0.0,0.0
1.8637274549098195,0.15856730551042097,3.179174148088749,-2.138838938864268,6.518954055953906,6.291235375455702,0.0,0.0
1.8837675350701402,0.22369653799195646,3.2564616240767745,-2.012166739401342,6.333609973146283,2.7145003998225676,0.0,0.0
1.9038076152304608,0.2890530601607611,3.2678261084402327,-1.8906621726677464,6.07522833667978,-1.9043729675106085,0.0,0.0
1.9238476953907815,0.35299077207220236,3.196885595572064,-1.775404648252242,5.762876220775212,-7.893829956254406,0.0,0.0
1.9438877755511021,0.4134037094546543,3.020646869122597,-1.6669744686448504,5.421508980369587,-10.0,0.0,0.0
1.9639278557114228,0.469620170694826,2.810823062008584,-1.5649975619864285,5.098845332921099,-9.99999999998942,0.0,0.0
1.9839679358717435,0.5217291207068415,2.605447500600777,-1.4688611786046437,4.806819169089242,-10.0,0.0,0.0
2.004008016032064,0.5698079833241589,2.4039431308658723,-1.377955858638603,4.5452659983020425,-9.999999999999998,0.0,0.0
2.024048096192385,0.6139221376699274,2.2057077172884223,-1.2916789137084266,4.313847246508817,-9.999999999999998,0.0,0.0
2.0440881763527052,0.6541251855128909,2.0101523921481754,-1.2094355779850128,4.112166786170687,-9.999999947765684,0.0,0.0
2.064128256513026,0.6904596596520163,1.8167237069562707,-1.130638751384936,3.9398413300038344,-9.999999999343368,0.0,0.0
2.0841683366733466,0.7229579521049144,1.6249146226449072,-1.0547078865213462,3.7965432431794937,-6.255058140098212,0.0,0.0
2.1042084168336674,0.7530280952296281,1.5035071562356819,-0.9820917445752115,3.6308070973067297,-2.640513600851473,0.0,0.0
2.124248496993988,0.7820398280062709,1.4505866388321382,-0.9134816860311519,3.430502927202982,0.39651820710340324,0.0,0.0
2.1442885771543083,0.8111582721732369,1.4559222083482986,-0.8496212774840182,3.1930204273566822,2.73106752557932,0.0,0.0
2.164328657314629,0.8412932626383929,1.5067495232578023,-0.7911803294462639,2.922047401887711,4.430474996250335,0.0,0.0
2.1843687374749496,0.8731194239132689,1.5913080637438044,-0.7387007705850154,2.623977943062428,5.5966409371646595,0.0,0.0
2.2044088176352705,0.9071100253235489,1.6995300705139982,-0.6925768062536506,2.3061982165682395,6.325106019517605,0.0,0.0
2.224448897795591,0.9435698301709817,1.822990242371641,-0.653053688599068,1.976155882729128,6.692487153728805,0.0,0.0
2.244488977955912,0.982662179145792,1.9546174487405144,-0.6202354304268717,1.6409129086098173,6.759249308488692,0.0,0.0
2.2645290581162323,1.0244310812801325,2.08844510671702,-0.5940976444253337,1.3068893000768969,6.560450387264469,0.0,0.0
2.284569138276553,1.0688144435338032,2.21916811268353,-0.574496892897696,0.9800375763818864,6.1299617453333965,0.0,0.0
2.3046092184368736,1.1156573421932545,2.3421449329725723,-0.5611845217968154,0.665618555044027,5.5013204043266395,0.0,0.0
2.3246492985971945,1.1647254634073325,2.4534060607038946,-0.553823599433359,0.368046118172823,4.65055444248441,0.0,0.0
2.344689378757515,1.2156966886500735,2.5485612621370515,-0.5519797157614682,0.09219418359453974,3.6295451370205165,0.0,0.0
2.3647294589178354,1.2681817162563804,2.624251380315341,-0.5551494944361124,-0.1584889337322098,2.4763878213974695,0.0,0.0
2.3847695390781563,1.3217394358151495,2.6778859779384523,-0.5627830521816998,-0.3816778872793667,1.2064751269847414,0.0,0.0
2.4048096192384767,1.3758835769352589,2.7072070560054686,-0.5742953829365961,-0.575616537744817,-0.17619691689909778,0.0,0.0
2.4248496993987976,1.4300849478443598,2.710068545455052,-0.5890720174541194,-0.7388317258761682,-1.75247228246544,0.0,0.0
2.444889779559118,1.4837412553108371,2.68281537332387,-0.6064341085021471,-0.8681045524013815,-3.3941011609594147,0.0,0.0
2.464929859719439,1.5362267606338615,2.6242752661512174,-0.6257032141623714,-0.963455283011217,-5.071089896677388,0.0,0.0
2.4849699398797593,1.5869042060872494,2.5338722726693867,-0.6462169778973944,-1.0256881867511525,-6.792942391366298,0.0,0.0
2.50501002004008,1.6351215384572182,2.4108666184984466,-0.6673250210197001,-1.0554021561152858,-8.93842052735869,0.0,0.0
2.5250501002004007,1.68006835459609,2.247340806943592,-0.6882188663806642,-1.0446922680482054,-9.999999999999996,0.0,0.0
2.5450901803607215,1.7213481795064438,2.063991245517698,-0.7085993299484907,-1.0190231783913268,-10.0,0.0,0.0
2.565130260521042,1.7589675442313597,1.8809682362457907,-0.7286376012635218,-1.0019135657515574,-10.0,0.0,0.0
2.5851703406813624,1.79293247706635,1.6982466417495103,-0.7485014417274173,-0.9931920231947745,-10.0,0.0,0.0
2.6052104208416833,1.8232485495159154,1.5158036224782687,-0.7683565396482825,-0.9927548960432627,-10.0,0.0,0.0
2.6252505010020037,1.8499209104291685,1.333618045662657,-0.7883678352837818,-1.0005647817749679,-10.0,0.0,0.0
2.6452905811623246,1.8729543073027406,1.1516698436786066,-0.808700821484118,-1.0166493100168121,-10.0,0.0,0.0
2.665330661322645,1.8923530934983814,0.9699393097820382,-0.8295228253342968,-1.0411001925089363,-10.0,0.0,0.0
2.685370741482966,1.9081212197751678,0.7884063138393219,-0.8510042756473531,-1.074072515652821,-9.999999999999895,0.0,0.0
2.7054108216432864,1.9202622080908054,0.6070494157818769,-0.8733199603112792,-1.115784233196305,-10.0,0.0,0.0
2.7254509018036073,1.9287791050877063,0.42584484984504756,-0.8966502763639936,-1.1665158026357223,-9.09721153019004,0.0,0.0
2.7454909819639277,1.9340116529782603,0.2616273945276987,-0.9214980510953559,-1.2423887365681099,-9.999999999999986,0.0,0.0
2.7655310621242486,1.9356239389864671,0.08061430041034531,-0.9477450544567002,-1.3123501680672174,-9.999999999896291,0.0,0.0
2.785571142284569,1.9336170379105049,-0.10034505379811362,-0.975598432904986,-1.3926689224142892,-9.999999999999778,0.0,0.0
2.8056112224448895,1.9279910591633254,-0.28129893735897155,-1.0052758554975298,-1.4838711296271885,-10.0,0.0,0.0
2.8256513026052104,1.9187449314904548,-0.462306383643532,-1.0370067222814272,-1.5865433391948642,-9.999999999997513,0.0,0.0
2.845691382765531,1.9058761355026177,-0.6434397993918533,-1.0710333414538573,-1.7013309586215026,-10.0,0.0,0.0
2.8657314629258517,1.889380376141564,-0.8247879680526833,-1.107612062413616,-1.8289360479879342,-10.0,0.0,0.0
2.885771543086172,1.8692511869247856,-1.0064594608389132,-1.147014348491703,-1.9701143039043516,-9.999999999999389,0.0,0.0
2.905811623246493,1.8454794581362786,-1.1885864394253507,-1.1895277694356314,-2.1256710471964206,-10.0,0.0,0.0
2.9258517034068134,1.8180528824059088,-1.3713287865184898,-1.235456889348275,-2.2964559956321686,-10.0,0.0,0.0
2.9458917835671343,1.7869553138564658,-1.5548784274721548,-1.2851240201232992,-2.4833565387512175,-9.999999999999964,0.0,0.0
2.9659318637274548,1.7521660418974982,-1.7394635979483815,-1.338869802233984,-2.687289105534242,-10.0,0.0,0.0
2.9859719438877756,1.7136589887676643,-1.925352656491697,-1.3970535617390012,-2.9091879752508603,-9.999999999997351,0.0,0.0
3.006012024048096,1.671401852366913,-2.11285682003757,-1.4600533706262073,-3.149990444360307,-9.999999999999726,0.0,0.0
3.0260521042084165,1.625355234502896,-2.302330893200845,-1.5282657006698541,-3.4106165021823425,-10.0,0.0,0.0
3.0460921843687374,1.575471821670638,-2.4941706416128975,-1.6021044987889548,-3.6919399059550346,-9.999999999979908,0.0,0.0
3.066132264529058,1.521695723790166,-2.688804894023602,-1.6819994096961308,-3.9947455453588003,-9.999999999999968,0.0,0.0
3.0861723446893787,1.4639621294496152,-2.8866797170275396,-1.7683927091635592,-4.319664973371419,-10.0,0.0,0.0
3.106212424849699,1.4021975078711837,-3.088231078921576,-1.8617342635483007,-4.667077719237082,-10.0,0.0,0.0
3.12625250501002,1.336320680704134,-3.293841358352486,-1.9624734734965235,-5.036960497411131,-9.99999999984318,0.0,0.0
3.1462925851703405,1.2662451991988573,-3.503774075263836,-2.071046681262507,-5.428660388299175,-9.999999999999998,0.0,0.0
3.1663326653306614,1.1918835812281556,-3.718080898535079,-2.187857957151364,-5.840563794442868,-9.999999999999993,0.0,0.0
3.186372745490982,1.1131540499541273,-3.9364765637014156,-2.313250674952493,-6.269635890056451,-5.796566265077454,0.0,0.0
3.2064128256513023,1.0315680482734484,-4.079300084033942,-2.4458682106090945,-6.630876782830072,-0.21276389552134845,0.0,0.0
3.226452905811623,0.9492307167871552,-4.116866574314657,-2.5831166584311434,-6.862422391102441,4.363744273659923,0.0,0.0
3.2464929859719436,0.8679586604656385,-4.063602816075836,-2.7221246536486587,-6.9503997608757695,7.295129783629751,0.0,0.0
3.2665330661322645,0.7890146204241643,-3.947202002073713,-2.8603386340157453,-6.910699018354329,9.999999998962664,0.0,0.0
3.286573146292585,0.7136177900285358,-3.769841519781427,-2.9950750945346027,-6.73682302594287,9.999999999994332,0.0,0.0
3.306613226452906,0.6419467347173837,-3.583552765557602,-3.1251441334534698,-6.503451945943353,9.999999999999638,0.0,0.0
