time,x,x_dot,theta,theta_dot,u,x_ref,theta_ref
0.0,-0.8796961494793627,-0.007770658039411571,-0.15131212296942326,0.004521670343786505,-9.734049203154935,0.0,0.0
0.02004008016032064,-0.8836011002550468,-0.19524753878420487,-0.14655088900581933,0.2380616981801961,-8.90744392563654,0.0,0.0
0.04008016032064128,-0.8909353741705726,-0.3667136957762859,-0.13756209085574142,0.44943990750389606,-8.243686612859674,0.0,0.0
0.06012024048096192,-0.9014437906760366,-0.5254208252732013,-0.12466581544393973,0.6448137705900845,-7.533221928651158,0.0,0.0
0.08016032064128256,-0.9148542298584452,-0.6705219591204277,-0.10818366759953986,0.8241073922199935,-6.782537395788591,0.0,0.0
0.1002004008016032,-0.9308798253253966,-0.8012797733475661,-0.08843863737972772,0.9872515109906068,-5.994539084934499,0.0,0.0
0.12024048096192384,-0.9492197878705644,-0.9169981272583898,-0.06575680095398422,1.1340918212871751,-5.1709206978020985,0.0,0.0
0.1402805611222445,-0.9695598019255307,-1.0170007027483163,-0.040469370931959334,1.2643715011012442,-4.312408140651057,0.0,0.0
0.16032064128256512,-0.9915721044901088,-1.1006151282289025,-0.012914873852507239,1.3777248539726048,-3.4191652660528926,0.0,0.0
0.18036072144288576,-1.0149154150581219,-1.167165528400653,0.016558831878696174,1.4736852865601706,-2.49122033138092,0.0,0.0
0.2004008016032064,-1.0392348890509746,-1.2159736996426345,0.04759296822029749,1.5517068170800654,-1.5288984666349839,0.0,0.0
0.22044088176352705,-1.0641622647513855,-1.246368785020543,0.07981692198668117,1.6111976883191834,-0.5332505092868846,0.0,0.0
0.24048096192384769,-1.089316366268952,-1.2577050758783264,0.11284820250289099,1.651564025810491,0.49352988862876146,0.0,0.0
0.2605210420841683,-1.1143041132901945,-1.2493873510621223,0.1462934197158947,1.6722608606501859,1.5477079532687399,0.0,0.0
0.280561122244489,-1.1387221731777843,-1.2209029943794931,0.17975036710363723,1.672847369387125,2.623635532030329,0.0,0.0
0.3006012024048096,-1.1621593732906366,-1.171860005642607,0.21281122701485927,1.6530429955611015,3.7134152536542997,0.0,0.0
0.32064128256513025,-1.1841999712741145,-1.1020298991738962,0.24506685208919396,1.6127812537167343,4.8066203968279115,0.0,0.0
0.3406813627254509,-1.2044278564078208,-1.0113942566853167,0.27611201974169486,1.5522583826250456,5.890107722865046,0.0,0.0
0.3607214428857715,-1.2224317200717738,-0.9001931831976543,0.3055515068298629,1.4719743544084019,6.947988421488111,0.0,0.0
0.3807615230460922,-1.2378111778797427,-0.7689728903984479,0.3330067810803381,1.3727637125237617,7.961854718020894,0.0,0.0
0.4008016032064128,-1.250183737565829,-0.6186279843043132,0.3581230419044922,1.255813041207704,8.91137904358224,0.0,0.0
0.42084168336673344,-1.2591923771884892,-0.4504319811330161,0.3805762557547775,1.122660692514267,9.775379808926928,0.0,0.0
0.4408817635270541,-1.2645133350568352,-0.2660478934172945,0.4000797256048712,0.9751734925046863,9.999999992043817,0.0,0.0
0.4609218436873747,-1.2660693951457456,-0.07780300444552249,0.4166738500333102,0.8297062214219485,9.999999999999986,0.0,0.0
0.48096192384769537,-1.263868834906991,0.11002801193772557,0.4304966600547456,0.691140501071769,9.999999999999995,0.0,0.0
0.501002004008016,-1.257918581478928,0.2975126714031604,0.4416636356280183,0.5583487786636365,9.99999999999998,0.0,0.0
0.5210420841683366,-1.2482242523712634,0.4847164553832254,0.4502683822259691,0.4302373298975412,9.999999999999996,0.0,0.0
0.5410821643286573,-1.234790197658199,0.6717027356532226,0.4563832206503473,0.3057419212189113,9.999999999999774,0.0,0.0
0.561122244488978,-1.2176195380926897,0.8585329782754654,0.4600596669747514,0.18382231622020567,9.999999999926475,0.0,0.0
0.5811623246492986,-1.1967141954412237,1.0452671325733056,0.46132878735609745,0.0634560190673009,9.99999999999649,0.0,0.0
0.6012024048096192,-1.172074912707518,1.2319641366852805,0.4602014181784397,-0.056368458882887953,9.999999999997168,0.0,0.0
0.6212424849699398,-1.1437012629363532,1.4186824885582403,0.4566682462954897,-0.17665859414750026,9.99999999993238,0.0,0.0
0.6412825651302605,-1.1115916461044317,1.6054808415960697,0.4506997476133667,-0.2984249341061501,9.999999999999998,0.0,0.0
0.6613226452905812,-1.07574327433847,1.7924185882980888,0.44224598543041027,-0.42268810914781946,9.999999999999941,0.0,0.0
0.6813627254509018,-1.036152146466499,1.9795563935985565,0.4312362733228801,-0.5504856053765066,9.999999999971479,0.0,0.0
0.7014028056112224,-0.9928130138240954,2.1669566321201765,0.4175787114461762,-0.6828780938351967,9.999999999901174,0.0,0.0
0.721442885771543,-0.9457193404351758,2.3546836694459765,0.4011596104838561,-0.8209550481160033,9.999999999999995,0.0,0.0
0.7414829659318637,-0.8948632623185868,2.5428039058294467,0.3818428247904341,-0.9658392846711018,9.999999999999984,0.0,0.0
0.7615230460921844,-0.8402355529222576,2.73138546981646,0.35946902635078865,-1.118689921982271,9.999999999993305,0.0,0.0
0.781563126252505,-0.7818256047761794,2.920497407303915,0.3338549649962633,-1.2807030677262674,9.999999999939728,0.0,0.0
0.8016032064128256,-0.7196214416457185,3.11020815652304,0.30479277903214125,-1.4531092982061051,9.999999744059945,0.0,0.0
0.8216432865731462,-0.6536097811410654,3.3005830252326573,0.27204944546600685,-1.63716667830672,9.859528072543661,0.0,0.0
0.8416833667334669,-0.5838307023044222,3.48895394183216,0.23544522507099638,-1.8302110197505235,8.93965569913172,0.0,0.0
0.8617234468937875,-0.5106265402116578,3.6602081046382224,0.19521905020447294,-2.0113087433261714,7.979077821693538,0.0,0.0
0.8817635270541082,-0.4343564050124641,3.8135067599596835,0.1516239883476615,-2.179753092840573,6.97439936574813,0.0,0.0
0.9018036072144289,-0.3553979576118322,3.9479223700315957,0.1049327943057023,-2.3345597020979594,5.903481847286085,0.0,0.0
0.9218436873747494,-0.27415636844740104,4.0620794582215565,0.055453340713728184,-2.473972679598706,4.753348827788978,0.0,0.0
0.9418837675350701,-0.19106955672712045,4.15434058601403,0.003537728998403787,-2.59578058576622,3.519353299791055,0.0,0.0
0.9619238476953907,-0.10660995179957353,4.222980246377346,-0.0504149846500834,-2.6976356824243592,2.1998541595175602,0.0,0.0
0.9819639278557114,-0.021284796145239177,4.266257782716718,-0.10595969433217332,-2.777235484104496,0.760154881251125,0.0,0.0
1.002004008016032,0.06435096665871408,4.281788140197663,-0.16258890166983242,-2.831460366882954,-0.775957629331069,0.0,0.0
1.0220440881763526,0.14970493636578644,4.267698485353618,-0.21975247622294997,-2.8581787276558774,-2.3993575334377217,0.0,0.0
1.0420841683366733,0.23415200077336856,4.222353220379106,-0.2768702059188775,-2.855886484796378,-4.107770064976643,0.0,0.0
1.062124248496994,0.317036511288468,4.144225525754971,-0.3333410491149653,-2.823542159804391,-5.96806927096638,0.0,0.0
1.0821643286573146,0.39764765139953157,4.030557005553178,-0.3885143038692278,-2.7586627377131254,-7.904720979874059,0.0,0.0
1.1022044088176353,0.47524997616700265,3.8801162383735552,-0.44173933625516243,-2.661251619296732,-9.999999999743833,0.0,0.0
1.122244488977956,0.5490525240255177,3.6901273929257563,-0.4923272389618563,-2.529395135334695,-9.99999999999996,0.0,0.0
1.1422845691382766,0.619074959015309,3.5011217494895615,-0.5406991205439287,-2.4185940791036176,-9.99999999999997,0.0,0.0
1.1623246492985972,0.6853357572224825,3.313039910358681,-0.5872612245592367,-2.3281052007654024,-10.0,0.0,0.0
1.1823647294589177,0.7478519730447508,3.125810791113413,-0.6324063933239258,-2.2572584382344556,-10.0,0.0,0.0
1.2024048096192383,0.8066390964432014,2.9393561699225317,-0.6765159331220187,-2.2054769899046454,-9.99999999999988,0.0,0.0
1.222444889779559,0.8617109610828371,2.7535932319817817,-0.7199617304349416,-2.1722898656461425,-9.999999999999977,0.0,0.0
1.2424849699398797,0.9130796725387417,2.5684355727952295,-0.7631085094913703,-2.157338952821437,-10.0,0.0,0.0
1.2625250501002003,0.9607555326410238,2.383793005114104,-0.8063161519716624,-2.1603821240146015,-10.0,0.0,0.0
1.282565130260521,1.004746940929503,2.1995704144239543,-0.8499420217178423,-2.181293487308992,-10.0,0.0,0.0
1.3026052104208417,1.0450602575165173,2.0156658293507204,-0.8943432525347358,-2.2200615408446738,-10.0,0.0,0.0
1.3226452905811623,1.081699613835936,1.8319678159709392,-0.9398789671757211,-2.2767857320492606,-10.0,0.0,0.0
1.342685370741483,1.1146666591949386,1.648352267950125,-0.9869124016787841,-2.3516717251531514,-10.0,0.0,0.0
1.3627254509018036,1.143960232146734,1.4646786475897684,-1.035812912359704,-2.4450255340459943,-10.0,0.0,0.0
1.3827655310621243,1.1695759468982272,1.2807857375746672,-1.0869578436810177,-2.5572465660656842,-10.0,0.0,0.0
1.4028056112224447,1.191505686753541,1.0964869927656922,-1.1407342342447058,-2.6888195281844056,-10.0,0.0,0.0
1.4228456913827654,1.209736999582811,0.9115656414634975,-1.1975403351684344,-2.840305046186435,-10.0,0.0,0.0
1.442885771543086,1.224252395278225,0.7257697847706976,-1.2577869092397238,-3.0123287035644712,-10.0,0.0,0.0
1.4629258517034067,1.2350285531418548,0.5388078931814945,-1.3218982685043783,-3.205567963232722,-10.0,0.0,0.0
1.4829659318637274,1.2420354595018794,0.35034531800123603,-1.390312988572265,-3.4207360033943304,-9.999999999999094,0.0,0.0
1.503006012024048,1.245235514381007,0.16000274395637987,-1.4634842034820876,-3.6585607454911364,-9.999999999999998,0.0,0.0
1.5230460921843687,1.2445826731298284,-0.032642062558924906,-1.5418793251717193,-3.9197560844815835,-9.999999999999991,0.0,0.0
1.5430861723446894,1.2400217276895291,-0.22804727201496522,-1.625978930963642,-4.204980289596143,-10.0,0.0,0.0
1.56312625250501,1.2314878864274752,-0.4266920631026919,-1.7162743991936178,-4.514773411498783,-9.999999999999295,0.0,0.0
1.5831663326653307,1.2189068856597354,-0.6290500383869922,-1.8132636192742415,-4.8494610040311885,-10.0,0.0,0.0
1.6032064128256511,1.2021959637834196,-0.8355460938157857,-1.917443728089407,-5.209005440758271,-9.999999999999998,0.0,0.0
1.6232464929859718,1.181266150423902,-1.0464906679758823,-2.029299310588637,-5.592779124961509,-9.999999999987239,0.0,0.0
1.6432865731462925,1.156026457352235,-1.2619846535833454,-2.1492838723438106,-5.999228087758672,9.999999999999993,0.0,0.0
1.6633266533066131,1.1338146213709974,-1.1105917990618814,-2.2717069199700783,-6.1211523813133875,-10.0,0.0,0.0
1.6833667334669338,1.107189039670755,-1.3312790850121146,-2.402888043485486,-6.559056175770367,9.99999999999844,0.0,0.0
1.7034068136272544,1.0836553305999974,-1.1766854535378797,-2.5345990963754437,-6.585552644497906,-9.999999999999556,0.0,0.0
1.723446893787575,1.055707415428573,-1.397395758571213,-2.675097135433644,-7.024901952910012,9.999999999999993,0.0,0.0
1.7434869739478958,1.031064671825116,-1.2321371801728542,-2.8138128508255194,-6.935785769593782,-9.999999999999993,0.0,0.0
1.7635270541082164,1.0021624096759705,-1.445113107457276,-2.9604657326119366,-7.332644089320853,9.999999999999993,0.0,0.0
1.783567134268537,0.9769139700143834,-1.262421983079355,-3.1027894564431238,-7.116186191559352,-7.564965573510527,0.0,0.0
1.8036072144288577,0.9486643725173275,-1.4124798748527956,-3.2498366817051245,-7.352361263100038,9.999999999999996,0.0,0.0
1.8236472945891782,0.9244583149175991,-1.21030287998642,-3.3902230257019745,-7.019317199842502,2.6731708988482517,0.0,0.0
1.8436873747494988,0.9015943842092806,-1.1431965354159264,-3.5272132759225157,-6.849512511027064,9.999999999999243,0.0,0.0
1.8637274549098195,0.8830324160192435,-0.9280984095018546,-3.656017899760431,-6.440231191895765,9.125876290671602,0.0,0.0
1.8837675350701402,0.86848156227135,-0.7275426873946753,-3.7766964712136617,-6.033928572661529,10.0,0.0,0.0
1.9038076152304608,0.8582793818124739,-0.5101090229438057,-3.888641037257378,-5.597228302185811,7.5484705421674425,0.0,0.0
1.9238476953907815,0.8514666262147206,-0.340637779887665,-3.9928648897036743,-5.211192622314811,10.0,0.0,0.0
1.9438877755511021,0.8489202517342689,-0.1273187240225842,-4.088454187092113,-4.779464869421928,1.9594427934395284,0.0,0.0
1.9639278557114228,0.847578138017456,-0.06710568584064586,-4.17821964574102,-4.488272932445338,9.999999999988594,0.0,0.0
1.9839679358717435,0.850377829476336,0.13998457294400218,-4.259766320392887,-4.077333732593368,-1.2822680686914598,0.0,0.0
2.004008016032064,0.8530869399116191,0.13545552176415385,-4.33608777785435,-3.816072873073135,9.999999999999995,0.0,0.0
2.024048096192385,0.8598068544933395,0.33599572908601716,-4.404734600658357,-3.4323411402003794,-3.3295060903486835,0.0,0.0
2.0440881763527052,0.8655914251871074,0.2892285346883974,-4.468205611765268,-3.1735505553455527,3.645982257761233,0.0,0.0
2.064128256513026,0.8729484156731343,0.3678495243013452,-4.525404740778127,-2.85995645064292,-3.9225728440383243,0.0,0.0
2.0841683366733466,0.8790710211991131,0.3061302762989407,-4.577173957733809,-2.5884608477841113,-3.3346584241302404,0.0,0.0
2.1042084168336674,0.8841361009185705,0.2532539859728708,-4.623334187850887,-2.3080115058539037,-6.0694067905849005,0.0,0.0
2.124248496993988,0.8871131289458163,0.1488514013622878,-4.6639197611242,-2.0292786636656595,-7.4937119350599355,0.0,0.0
2.1442885771543083,0.88745245933856,0.016966519637182403,-4.698827484181163,-1.7453861528481547,-8.940861118825552,0.0,0.0
2.164328657314629,0.8845995329175619,-0.1426463210499033,-4.727924315422427,-1.4548415620631865,-9.911649396332521,0.0,0.0
2.1843687374749496,0.8781766410757198,-0.3211445920921021,-4.75106239286259,-1.1569038720081686,-9.999999999954854,0.0,0.0
2.2044088176352705,0.8681310138211399,-0.5022813627289965,-4.768118565176541,-0.8528086156975894,-9.99999999993946,0.0,0.0
2.224448897795591,0.8544466015631327,-0.6842206129003612,-4.779003698503039,-0.5442566663248689,-9.999999804236413,0.0,0.0
2.244488977955912,0.8371123569772233,-0.8667122292954711,-4.783661336340298,-0.23288189186298802,-9.999999999999973,0.0,0.0
2.2645290581162323,0.8161224962913377,-1.0494930342942805,-4.782067323832484,0.07970062539071793,-9.982098275126274,0.0,0.0
2.284569138276553,0.7914831402177173,-1.2319678036810218,-4.77423035369492,0.3918485068781919,-9.101611223313277,0.0,0.0
2.3046092184368736,0.7635195524710586,-1.3981793873329322,-4.760220315679617,0.7005019007651321,-7.98997991999243,0.0,0.0
2.3246492985971945,0.7326462193403931,-1.5436666565332764,-4.740132115556892,1.0044100061362624,-6.7167175965981025,0.0,0.0
2.344689378757515,0.6993412448784092,-1.6652487230991961,-4.7140687335906595,1.3031690983116193,-5.332497557315423,0.0,0.0
2.3647294589178354,0.6641276085813579,-1.7606818148525638,-4.68212422650405,1.5972253543304578,-3.8867293945535,0.0,0.0
2.3847695390781563,0.6275549732229718,-1.8286317679193023,-4.644367729854384,1.8878248324833045,-2.4252904389756558,0.0,0.0
2.4048096192384767,0.5901829233181864,-1.8686024952392712,-4.6008299472033745,2.176889132550469,-0.9887147692633009,0.0,0.0
2.4248496993987976,0.5525663109235319,-1.8808306197327267,-4.5514931804117325,2.4668383395821136,0.38891282946271355,0.0,0.0
2.444889779559118,0.5152430854120646,-1.8661612755733663,-4.496285526036403,2.76038271876648,1.6803542839892465,0.0,0.0
2.464929859719439,0.47872467916979156,-1.8259203121136551,-4.435079526713735,3.06029996613341,2.8650224533242845,0.0,0.0
2.4849699398797593,0.4434887556134162,-1.7617961778187656,-4.367695375370958,3.3692075671388695,3.9285359650561222,0.0,0.0
2.50501002004008,0.4099739816724266,-1.6757386970494799,-4.293908706739924,3.6893334315516464,4.862478843442334,0.0,0.0
2.5250501002004007,0.37857650510841273,-1.5698738282006925,-4.21346298288099,4.022286192946719,5.664448649664126,0.0,0.0
2.5450901803607215,0.3496478688301706,-1.4464318139121037,-4.126086434479729,4.368827420063055,6.338177605417761,0.0,0.0
2.565130260521042,0.3234940827123583,-1.3076893058906154,-4.031513466330184,4.7286484074772455,6.893370903681706,0.0,0.0
2.5851703406813624,0.300375466055432,-1.1559308328463127,-3.9295104148060496,5.100152576206695,7.344643441673862,0.0,0.0
2.6052104208416833,0.28050659857682436,-0.9934433739303825,-3.819905679876334,5.480236746485781,7.709195883598031,0.0,0.0
2.6252505010020037,0.2640554013484599,-0.8225598614182225,-3.7026244950373344,5.86405924194997,8.003335697595418,0.0,0.0
2.6452905811623246,0.2511402285771505,-0.6457586385654698,-3.5777285930698044,6.244795098376497,8.238187219457474,0.0,0.0
2.665330661322645,0.24182403154377485,-0.46580985166878375,-3.445460232515165,6.613418027731971,8.415447778482287,0.0,0.0
2.685370741482966,0.2361053863731153,-0.285932258532978,-3.3062877130531616,6.958625973100181,8.524426072881603,0.0,0.0
2.7054108216432864,0.23390753199462877,-0.10989271892432648,-3.1609452915446896,7.267121075423607,8.541443111628329,0.0,0.0
2.7254509018036073,0.23506816516267023,0.058031658402073,-3.0104555127541976,7.524488939524607,8.432221804616645,0.0,0.0
2.7454909819639277,0.23933377870787464,0.21328067726022037,-2.8561195352898405,7.716798873217858,8.156750661634632,0.0,0.0
2.7655310621242486,0.24636169896875781,0.3513960130441579,-2.699465114067485,7.8327210611177795,7.674369441681104,0.0,0.0
2.785571142284569,0.2557300076300155,0.46841543306288486,-2.5421539231260644,7.865559547071022,6.946015893757815,0.0,0.0
2.8056112224448895,0.26695116436555355,0.5610578367769027,-2.3858647541222955,7.8144584501884395,5.931768721438954,0.0,0.0
2.8256513026052104,0.27948181472235023,0.6265325178398353,-2.232177052316512,7.68438509028918,4.584259608970756,0.0,0.0
2.845691382765531,0.29272096372199663,0.6619574499823194,-2.0824742848604054,7.485138372805327,2.8417846613638345,0.0,0.0
2.8657314629258517,0.3059917605099824,0.663539839399288,-1.9378719994556333,7.230114270238605,0.6323215244207883,0.0,0.0
2.885771543086172,0.31850927815043195,0.6258758820224779,-1.7991598257264707,6.935608686458131,-2.077554049637918,0.0,0.0
2.905811623246493,0.3293546959711981,0.542270891038306,-1.6667388689635196,6.621047838147552,-5.105654421136257,0.0,0.0
2.9258517034068134,0.33752297444702123,0.4084139237911554,-1.5405516607705716,6.309360409647402,-7.711671605769896,0.0,0.0
2.9458917835671343,0.3421714116482085,0.23242186005936358,-1.4200785318561464,6.023656445721257,-8.675402915192379,0.0,0.0
2.9659318637274548,0.3430467733576648,0.043768085472813634,-1.3045658657299133,5.7756333063116525,-7.561568604495288,0.0,0.0
2.9859719438877756,0.34063965002431307,-0.12035616666758667,-1.1934278942119327,5.556898575899024,-5.190381086945518,0.0,0.0
3.006012024048096,0.33589303379136953,-0.2373308116471758,-1.0864605165194097,5.348368884626155,-2.503192228686912,0.0,0.0
3.0260521042084165,0.32986705851474124,-0.3012987638314154,-0.9838006109443854,5.13299527875121,0.00437114105638603,0.0,0.0
3.0460921843687374,0.32356113765937694,-0.31529604276821543,-0.8858009531834552,4.899982888046509,2.1767224138220307,0.0,0.0
3.066132264529058,0.3178559376449785,-0.28526000071992186,-0.7929217828923512,4.643958514555204,4.0077745399325835,0.0,0.0
3.0861723446893787,0.31350784261711434,-0.21740475139320808,-0.7056566122373279,4.3632585327511615,5.533056021051513,0.0,0.0
3.106212424849699,0.31115803120372837,-0.1174905706692996,-0.6244826110975452,4.058700056989134,6.78920597997616,0.0,0.0
3.12625250501002,0.3113422419100333,0.009210535315246293,-0.5498260888595912,3.732826111897704,7.8041615396378425,0.0,0.0
3.1462925851703405,0.3144981490761519,0.15779535830593036,-0.48203837398177746,3.389385743890685,8.597704507608182,0.0,0.0
3.1663326653306614,0.32097081177975545,0.3236331351801759,-0.42138031600471887,3.03290289885293,9.18440163897219,0.0,0.0
3.186372745490982,0.33101732418323715,0.5023256201740853,-0.36801458240975965,2.668286679747962,9.576389260249336,0.0,0.0
3.2064128256513023,0.34481156442592253,0.6897120121342695,-0.3220048510967344,2.3004865656512625,9.785311824290199,0.0,0.0
3.226452905811623,0.36244951099805545,0.8818973286066454,-0.2833206052696876,1.9342122913523372,9.823375799813212,0.0,0.0
3.2464929859719436,0.3839552219995854,1.0752855500764993,-0.25184592978432463,1.5737337742681485,9.70361681492411,0.0,0.0
3.2665330661322645,0.4092872960474347,1.2666037023924623,-0.22739060200373282,1.2227663890295901,9.439611250823754,0.0,0.0
