time,x,x_dot,theta,theta_dot,u,x_ref,theta_ref
0.0,0.9283929557116624,0.08004073254636698,0.099715581772791,0.07678710955801321,9.36472686632367,0.0,0.0
0.02004008016032064,0.933617123582305,0.2612083935321309,0.09643166127030303,-0.16419602512439813,8.521135649993766,0.0,0.0
0.04008016032064128,0.9421368076207262,0.4259842019210597,0.08879629206832663,-0.3817684600988196,7.854352251312668,0.0,0.0
0.06012024048096192,0.9536946510623211,0.5778921720797482,0.07714558429469148,-0.5825353886817575,7.1357672955852705,0.0,0.0
0.08016032064128256,0.9680143425341939,0.7159845735936428,0.061819889186688556,-0.7662847554001464,6.373560057108259,0.0,0.0
0.1002004008016032,0.9848035071286354,0.8394582297220756,0.04316241215206977,-0.9328738517309394,5.571149684850032,0.0,0.0
0.12024048096192384,1.0037547612860094,0.947562707868704,0.021520402794117655,-1.0821004678976058,4.730450273228774,0.0,0.0
0.1402805611222445,1.024546223134752,1.0395730924371296,-0.0027531040499158242,-1.213675342201674,3.852466721129592,0.0,0.0
0.16032064128256512,1.0468417271027248,1.1147751983986485,-0.02929743448940876,-1.3272165219746468,2.937754627284619,0.0,0.0
0.18036072144288576,1.070290933256111,1.1724603076693074,-0.057742631788742074,-1.4222598649666658,1.9868668017783848,0.0,0.0
0.2004008016032064,1.094529511086211,1.211928891505004,-0.08770830093827964,-1.4982834574768777,1.000800047032239,0.0,0.0
0.22044088176352705,1.1191795713242856,1.2325030119037308,-0.11880317923381742,-1.5547439147768891,-0.018564571345402348,0.0,0.0
0.24048096192384769,1.1438505096276208,1.2335469151667562,-0.15062561973099467,-1.5911220248588624,-1.068036214621172,0.0,0.0
0.2605210420841683,1.1681404122987615,1.2144951335570346,-0.18276511348023278,-1.6069746874619046,-2.1427110369138758,0.0,0.0
0.280561122244489,1.1916381575692292,1.1748872635233814,-0.2148049096672602,-1.6019898093513714,-3.2355997828696568,0.0,0.0
0.3006012024048096,1.2139263270982525,1.1144084764511653,-0.24632572644755718,-1.5760408390148495,-4.337300503707948,0.0,0.0
0.32064128256513025,1.2345850202809208,1.0329346591334134,-0.27691048499997895,-1.529237927621087,-5.435744523508725,0.0,0.0
0.3406813627254509,1.2531966345893173,0.9305807154198275,-0.3061499469330764,-1.4619730966548725,-6.516069142645674,0.0,0.0
0.3607214428857715,1.2693516295612162,0.8077497485949456,-0.33364908539140187,-1.3749569229162735,-7.560702158154486,0.0,0.0
0.3807615230460922,1.2826552183558297,0.6651794397306829,-0.35903396238122504,-1.2692438494911589,-8.54977745806994,0.0,0.0
0.4008016032064128,1.292734815529922,0.5039798587046187,-0.38195880334433496,-1.1462420481554958,-9.461999227366103,0.0,0.0
0.42084168336673344,1.2992479125230412,0.32565484965595964,-0.40211285291928467,-1.0077024787474849,-9.999999999999943,0.0,0.0
0.4408817635270541,1.3019963888379518,0.13742381574553014,-0.4193734184383137,-0.8630282759514522,-9.999999999999405,0.0,0.0
0.4609218436873747,1.3009888254978688,-0.050378167004153096,-0.43388413364651246,-0.7255357604099358,-9.999999999999995,0.0,0.0
0.48096192384769537,1.2962324658197395,-0.23781798390646328,-0.4457662853812845,-0.5941075867386026,-9.999999999999973,0.0,0.0
0.501002004008016,1.2877332580584588,-0.4249603880640317,-0.45511952769952746,-0.46766211591214846,-9.999999999999995,0.0,0.0
0.5210420841683366,1.2754959005042987,-0.6118678777080101,-0.4620225142898844,-0.34514932951784755,-9.999999999999998,0.0,0.0
0.5410821643286573,1.259523883211809,-0.7986008646244895,-0.46653342511321366,-0.2255455411664627,-9.999999999998112,0.0,0.0
0.561122244488978,1.2398195224738002,-0.9852180369004364,-0.4686903712669849,-0.10784730768856039,-9.999999999999972,0.0,0.0
0.5811623246492986,1.2163839855460563,-1.1717768463871954,-0.46851166786657533,0.00893517002047732,-9.999999999999993,0.0,0.0
0.6012024048096192,1.1892173041450431,-1.3583340700506552,-0.4659959689867328,0.12578494399212795,-9.999999999999991,0.0,0.0
0.6212424849699398,1.1583183760204352,-1.5449464062303995,-0.4611222619950165,0.2436853495858147,-9.999999999999773,0.0,0.0
0.6412825651302605,1.1236849545649301,-1.7316710727752485,-0.4538497214385593,0.36362702782285955,-9.999999999999998,0.0,0.0
0.6613226452905812,1.0853136270728756,-1.9185663746027215,-0.4441174254768707,0.48661479808442953,-9.999999999999998,0.0,0.0
0.6813627254509018,1.0431997830027389,-2.1056922035068317,-0.43184394114620944,0.6136742165330646,-9.999999999992523,0.0,0.0
0.7014028056112224,0.9973375745505987,-2.2931104226070067,-0.4169267889937183,0.7458576076245563,-9.99999999987037,0.0,0.0
0.721442885771543,0.9477198731343736,-2.480885070811257,-0.39924180340987414,0.8842492791922081,-9.999999999999991,0.0,0.0
0.7414829659318637,0.8943382271795505,-2.6690822977411566,-0.37864241301249957,1.0299695198687286,-9.99999999999636,0.0,0.0
0.7615230460921844,0.8371828290811668,-2.8577699049191807,-0.3549588765485782,1.1841768231960674,-9.999999999983151,0.0,0.0
0.781563126252505,0.7762425026238585,-3.0470163228654124,-0.3279975250084189,1.3480675770079653,-9.999999998932195,0.0,0.0
0.8016032064128256,0.7115047267452766,-3.236888793929096,-0.29754008119700415,1.522872190570736,-9.999999999999984,0.0,0.0
0.8216432865731462,0.6429557176109137,-3.427450456718148,-0.2633431551736216,1.709846301169127,-9.770080512740254,0.0,0.0
0.8416833667334669,0.5706698770253213,-3.6142920292796212,-0.22526726876993128,1.903794320184517,-8.837190131633465,0.0,0.0
0.8617234468937875,0.49499451194991284,-3.783768253770425,-0.18355122535725435,2.0858021706338463,-7.860023626051107,0.0,0.0
0.8817635270541082,0.4162952722687971,-3.934961984055788,-0.13845091011495764,2.2550157621148355,-6.8196791266182615,0.0,0.0
0.9018036072144289,0.334963968858007,-4.066565170539505,-0.09025370727058071,2.4098601422188466,-5.7034275253288484,0.0,0.0
0.9218436873747494,0.2514238683920806,-4.177005023296322,-0.03928849550595593,2.5482605882312392,-4.5088454836783205,0.0,0.0
0.9418837675350701,0.1661307700511253,-4.264654917047764,0.014071730095627406,2.668011280079167,-3.229253611027427,0.0,0.0
0.9619238476953907,0.07957547241531933,-4.327764881790299,0.06940657210019321,2.76674210022829,-1.809653762667486,0.0,0.0
0.9819639278557114,-0.007695220373411235,-4.363534639436528,0.12621878288568916,2.840610539274798,-0.29918980788595717,0.0,0.0
1.002004008016032,-0.0950984882356527,-4.370163393112073,0.18396788618183568,2.8874551648073252,1.29270275598267,0.0,0.0
1.0220440881763526,-0.18202028000855308,-4.34608958864502,0.24208237369271465,2.9057243755439486,2.978399398051712,0.0,0.0
1.0420841683366733,-0.2678117907682788,-4.289575537986287,0.29996060615046327,2.8939116228874306,4.838262465685092,0.0,0.0
1.062124248496994,-0.3517596874997206,-4.197394836572087,0.35693490127098426,2.8487147560260486,6.758009225065725,0.0,0.0
1.0821643286573146,-0.4331319413687233,-4.068612693450136,0.41234471095439174,2.770490484170373,9.009102592746476,0.0,0.0
1.1022044088176353,-0.5110741169658061,-3.897108779854139,0.4653985811519593,2.6526935098783793,9.999999999997762,0.0,0.0
1.122244488977956,-0.5852232312253223,-3.7074557129758094,0.5160083368816921,2.5304877864866397,10.0,0.0,0.0
1.1422845691382766,-0.6555986333750123,-3.518770107484505,0.5645970816627713,2.4294372390539634,9.999999999999938,0.0,0.0
1.1623246492985972,-0.7222183516523041,-3.3309859138645868,0.6115738510997836,2.3488384718506135,9.99999999999443,0.0,0.0
1.1823647294589177,-0.7850988821312896,-3.1440265239492797,0.6573352576657855,2.288070328300098,9.999999999999899,0.0,0.0
1.2024048096192383,-0.844255052732284,-2.9578085300497183,0.7022674839782108,2.2466113156212644,10.0,0.0,0.0
1.222444889779559,-0.8996999248196854,-2.7722436043700736,0.746748486419015,2.2240501220402127,9.99999999999999,0.0,0.0
1.2424849699398797,-0.9514447033069127,-2.5872389243613654,0.7911503084485882,2.2200911014786597,10.0,0.0,0.0
1.2625250501002003,-0.9994986324212402,-2.4026964557163755,0.8358414306656589,2.234556110853528,10.0,0.0,0.0
1.282565130260521,-1.0438688586584375,-2.2185113118598716,0.8811891043443925,2.267383683936682,9.999999999999641,0.0,0.0
1.3026052104208417,-1.084560245430579,-2.0345693386070773,0.927561628559251,2.318626210742926,9.99999999999997,0.0,0.0
1.3226452905811623,-1.1215751259286741,-1.8507440249047646,0.9753305395847276,2.388445551273832,10.0,0.0,0.0
1.342685370741483,-1.1549129822300064,-1.66689281506661,1.0248726862333022,2.4771073324287243,10.0,0.0,0.0
1.3627254509018036,-1.1845700401432975,-1.482852895664558,1.07657216704629,2.584974040649394,10.0,0.0,0.0
1.3827655310621243,-1.2105387712252034,-1.2984365540952894,1.1308221052737324,2.7124969113721233,10.0,0.0,0.0
1.4028056112224447,-1.2328072964461612,-1.113426261047885,1.1880262353657884,2.8602065046028033,9.999999999999735,0.0,0.0
1.4228456913827654,-1.2513586909227914,-0.927569723831517,1.24860026951103,3.0287017072620848,10.0,0.0,0.0
1.442885771543086,-1.2661701969941024,-0.7405753035655473,1.3129730027283764,3.2186366608673125,10.0,0.0,0.0
1.4629258517034067,-1.2772123650518903,-0.552108402889395,1.3815870965327082,3.4307046902165936,9.999999999999892,0.0,0.0
1.4829659318637274,-1.284448159733496,-0.3617897340802813,1.454899447994702,3.665617573099691,9.999999999999599,0.0,0.0
1.503006012024048,-1.2878320957143388,-0.16919679904214008,1.5333809930343805,3.924077251983924,9.999999999999789,0.0,0.0
1.5230460921843687,-1.2873095054790356,0.026129511765155433,1.6175156947811522,4.2067350873385845,10.0,0.0,0.0
1.5430861723446894,-1.2828160949603433,0.22467052593460712,1.7077983082158321,4.514130671733995,10.0,0.0,0.0
1.56312625250501,-1.2742780162170684,0.426903937163749,1.8047302632146407,4.846597749940427,10.0,0.0,0.0
1.5831663326653307,-1.261612783281326,0.633261646787117,1.9088126390654132,5.204118792538627,6.116129479506049,0.0,0.0
1.6032064128256511,-1.2461544576682386,0.7729162806543657,2.0198273111919987,5.550733606329279,10.0,0.0,0.0
1.6232464929859718,-1.2263954327818096,0.9879512443214526,2.1389343841683726,5.955353648818703,-10.0,0.0,0.0
1.6432865731462925,-1.2096678930255742,0.8363769878117746,2.260549469354219,6.080754259292339,10.0,0.0,0.0
1.6633266533066131,-1.1885326537294483,1.0567619648062943,2.3909021819816223,6.517635631370165,9.999999999992813,0.0,0.0
1.6833667334669338,-1.1629385120152191,1.27970708571146,2.530150984988264,6.962440150332106,-10.0,0.0,0.0
1.7034068136272544,-1.1404930806611713,1.1222715677023927,2.668908154016737,6.937858451423658,9.99999999999945,0.0,0.0
1.723446893787575,-1.1136680021337027,1.3412539263734327,2.816186156267855,7.3639001125559025,-9.999999999999993,0.0,0.0
1.7434869739478958,-1.090294314709407,1.1686843712147819,2.960440451372971,7.212714755255809,9.999999999997083,0.0,0.0
1.7635270541082164,-1.06279449039202,1.3749912158693558,3.1118375707918253,7.569855970942708,-10.0,0.0,0.0
1.783567134268537,-1.03915489026023,1.181980006589497,3.2576253569276425,7.289389306790854,-3.232283729726375,0.0,0.0
1.8036072144288577,-1.0169282139152334,1.111333817249823,3.40062900638285,7.150182472760389,-10.0,0.0,0.0
1.8236472945891782,-0.9989100924792752,0.9009060717979054,3.536029031955608,6.7700012786378885,-7.985411579649979,0.0,0.0
1.8436873747494988,-0.9844153858242759,0.7247353327499632,3.6642946085647283,6.41327883045601,-10.0,0.0,0.0
1.8637274549098195,-0.9742683264711242,0.5073529676575846,3.7839794346026046,5.984241301893817,-7.436815176787162,0.0,0.0
1.8837675350701402,-0.9674909723922984,0.33886770394128934,3.8960992095061195,5.6059887451757495,-10.0,0.0,0.0
1.9038076152304608,-0.9650308168706984,0.12300777608000271,3.999478734718167,5.168976260602371,-2.369570115293854,0.0,0.0
1.9238476953907815,-0.9639728244475682,0.052899621156510215,4.097038300801,4.877978304141629,-9.999999999998998,0.0,0.0
1.9438877755511021,-0.9671259858735153,-0.15765807129735437,4.186155404833074,4.455855201603714,1.198433516388178,0.0,0.0
1.9639278557114228,-0.9702713832335083,-0.15726986799964693,4.2701970652249575,4.202083019594194,-9.999999999999618,0.0,0.0
1.9839679358717435,-0.9774975340553846,-0.3613075410938177,4.346309880146856,3.8056407460949098,3.2211644147142007,0.0,0.0
2.004008016032064,-0.983880141429673,-0.31913036871441414,4.417388390422233,3.5539255137688746,-5.954612239151404,0.0,0.0
2.024048096192385,-0.9927363367433067,-0.44280976568168784,4.481766334988347,3.218897228305697,3.9820396076036584,0.0,0.0
2.0440881763527052,-1.000383050625981,-0.38233569413371365,4.540837975024947,2.953582001829987,1.8444989014405313,0.0,0.0
2.064128256513026,-1.007559315494174,-0.358813243409654,4.594239936165365,2.670098057020898,5.715368537778732,0.0,0.0
2.0841683366733466,-1.0128154342557854,-0.2628059380805638,4.642145828654032,2.395294624433349,7.111905554595192,0.0,0.0
2.1042084168336674,-1.0156073388926592,-0.13959523184368916,4.684449150827253,2.115166108661057,8.84505846848954,0.0,0.0
2.124248496993988,-1.0152714637012845,0.01679375956872886,4.721009424719311,1.8280136946029204,9.999999997603027,0.0,0.0
2.1442885771543083,-1.011357659026866,0.1956902337209267,4.751647354112879,1.5318964696784114,9.999999996563286,0.0,0.0
2.164328657314629,-1.0038392715200992,0.37591937533834596,4.776201405964885,1.2277025926003293,9.99999999958779,0.0,0.0
2.1843687374749496,-0.9926938657726739,0.5572702873712657,4.79454436976156,0.9171481898337519,9.999999999996177,0.0,0.0
2.2044088176352705,-0.977903820641495,0.7395022565589497,4.806582471415726,0.6019050827082595,9.999999999609996,0.0,0.0
2.224448897795591,-0.9594567543315966,0.9223533154949193,4.8122546797075145,0.2836104145894207,9.999999999680414,0.0,0.0
2.244488977955912,-0.9373458002680055,1.1055477031795524,4.811532248135364,-0.036121578607485105,9.999999996753987,0.0,0.0
2.2645290581162323,-0.9115697509001959,1.2888024683904826,4.804418524055635,-0.3556862039864517,9.999999999999606,0.0,0.0
2.284569138276553,-0.882133078737538,1.4718336081328924,4.790949039738802,-0.6734742158416962,9.138085379248666,0.0,0.0
2.3046092184368736,-0.8493593896248586,1.6386844556339715,4.771228767569152,-0.98601360848251,7.785082903658154,0.0,0.0
2.3246492985971945,-0.8137560605049692,1.7801664559944717,4.745392894306427,-1.2917936631362332,6.29953912561325,0.0,0.0
2.344689378757515,-0.7758833364109419,1.8936362047013666,4.713571636058528,-1.591062912394968,4.744523330079469,0.0,0.0
2.3647294589178354,-0.7363310419505876,1.977614723017713,4.675871076956324,-1.8850279551101745,3.169338529484129,0.0,0.0
2.3847695390781563,-0.695700471223256,2.031528536366581,4.632357122904745,-2.175697702578932,1.6189651931100395,0.0,0.0
2.4048096192384767,-0.6545880529091742,2.055620915704087,4.583043397655514,-2.465686262461572,0.1316723335078287,0.0,0.0
2.4248496993987976,-0.6135716424443983,2.0508205232387944,4.527883869127737,-2.7579764263888316,-1.2618084280133277,0.0,0.0
2.444889779559118,-0.5731996723671514,2.0185985038623437,4.466770518403519,-3.055667536210917,-2.538235685148083,0.0,0.0
2.464929859719439,-0.5339830210875464,1.9608325639802522,4.399536084529402,-3.3617216937058583,-3.681348630765604,0.0,0.0
2.4849699398797593,-0.496389236615944,1.8796892235801201,4.325961816765454,-3.6787133881973686,-4.681443369867452,0.0,0.0
2.50501002004008,-0.4608387248206656,1.7775255897639182,4.245790147386265,-4.0085834689594275,-5.535277398977166,0.0,0.0
2.5250501002004007,-0.42770257456972605,1.6568075125469803,4.158742171777156,-4.352398780455446,-6.246155990444743,0.0,0.0
2.5450901803607215,-0.3973017144489568,1.520043006038462,4.06453977136833,-4.7101200204413,-6.823887471343541,0.0,0.0
2.565130260521042,-0.3699070360742349,1.3697339187360944,3.9629321603703334,-5.080380549899824,-7.283984602828118,0.0,0.0
2.5851703406813624,-0.34573988954944335,1.208357326239579,3.8537266994233663,-5.4602730473483545,-7.645629510562257,0.0,0.0
2.6052104208416833,-0.3249720402935596,1.0383924627941874,3.736824014806416,-5.845134230847526,-7.928409900391651,0.0,0.0
2.6252505010020037,-0.30772399721140004,0.862402154107977,3.6122575035675606,-6.228325561942767,-8.14807845150726,0.0,0.0
2.6452905811623246,-0.2940607235889626,0.6831636811218716,3.480236715031075,-6.601039426824274,-8.312063501920601,0.0,0.0
2.665330661322645,-0.28398434017627405,0.5038191706344286,3.341192166070313,-6.952227448038105,-8.415930203306248,0.0,0.0
2.685370741482966,-0.277424652564697,0.3279843805788536,3.1958153937830187,-7.268838614364705,-8.441955826548702,0.0,0.0
2.7054108216432864,-0.2742298960856318,0.15973782395325944,3.045083316481219,-7.536603865089993,-8.360642800288673,0.0,0.0
2.7254509018036073,-0.2741612756952893,0.0034310195171244895,2.8902530116371152,-7.741515242205193,-8.13502396597299,0.0,0.0
2.7454909819639277,-0.27689461865671516,-0.1366671480712917,2.7328158132912876,-7.871859917291371,-7.725888764196822,0.0,0.0
2.7655310621242486,-0.2820299294502192,-0.2567655396752026,2.574410348846481,-7.9202732222403265,-7.094912820595479,0.0,0.0
2.785571142284569,-0.2891054440653836,-0.35377573075821744,2.416708914919734,-7.8850716963373495,-6.203421845595452,0.0,0.0
2.8056112224448895,-0.297609167408327,-0.42518616714717067,2.2613010869132735,-7.770391400323024,-5.00672530932664,0.0,0.0
2.8256513026052104,-0.30698001175923806,-0.468542217545552,2.1095955433470195,-7.5852771783126975,-3.446915754388439,0.0,0.0
2.845691382765531,-0.31659308015713594,-0.48065341989489285,1.9627474875641617,-7.342402789142882,-1.4528810508067789,0.0,0.0
2.8657314629258517,-0.32572957067674535,-0.45682452598047024,1.8216030337632432,-7.057222690045932,1.0258681564591186,0.0,0.0
2.885771543086172,-0.3335460578365394,-0.39082435798970305,1.6866421534245906,-6.748044016932629,3.881007924885816,0.0,0.0
2.905811623246493,-0.3390961594088613,-0.27750507861609525,1.5579109147963526,-6.436561931411901,6.53136251575139,0.0,0.0
2.9258517034068134,-0.3415214280991252,-0.12126343451319568,1.4349951578919409,-6.145787845220581,7.8261287791823655,0.0,0.0
2.9458917835671343,-0.34045187854193615,0.05347747785945384,1.317192354829772,-5.890140153108447,7.089934887445814,0.0,0.0
2.9659318637274548,-0.3362449666272306,0.21034559573527833,1.203897939855393,-5.664720748718941,4.949560489207201,0.0,0.0
2.9859719438877756,-0.3297631002605636,0.3240933183333483,1.0948654003343588,-5.4516269760517115,2.3691906250018757,0.0,0.0
3.006012024048096,-0.32203028042023163,0.38664099201659813,0.9901969520534029,-5.233422414047797,-0.09694325409471993,0.0,0.0
3.0260521042084165,-0.3140334300054161,0.3998425207407767,0.8902247955419089,-4.998607825574696,-2.259784869834771,0.0,0.0
3.0460921843687374,-0.3066524824715151,0.36904737669505044,0.7954007587960061,-4.74120183729514,-4.098143566744053,0.0,0.0
3.066132264529058,-0.3006494230284523,0.300152972153139,0.7062191430398471,-4.459080787807952,-5.640695956198195,0.0,0.0
3.0861723446893787,-0.2966748035413663,0.19873097435430104,0.6231645130522273,-4.15273149938099,-6.920440783724427,0.0,0.0
3.106212424849699,-0.29527603880453096,0.069938236841767,0.5466749226264724,-3.8244795212877407,-7.962904744037285,0.0,0.0
3.12625250501002,-0.2969037362925785,-0.08138487440237743,0.4771157848790136,-3.4779568873729416,-8.78597524290303,0.0,0.0
3.1462925851703405,-0.3019163033700598,-0.2506283538740666,0.4147626377366537,-3.117657357117995,-9.402620348723788,0.0,0.0
3.1663326653306614,-0.3105839092853104,-0.43338029576252896,0.35979205908366957,-2.748528932649208,-9.823637499885594,0.0,0.0
3.186372745490982,-0.32309269943019425,-0.6254395072441932,0.3122798971788671,-2.3756080952401217,-9.999995869514096,0.0,0.0
3.2064128256513023,-0.33952663196206656,-0.8216966265936154,0.2721725719545521,-2.005366261215751,-9.99999999981393,0.0,0.0
3.226452905811623,-0.35989515915685577,-1.0184263597394596,0.23932603598970706,-1.6423267982422507,-9.999999987976633,0.0,0.0
3.2464929859719436,-0.38420329489011773,-1.2154067866630984,0.2136098678190806,-1.2858084085313228,-9.795282742908878,0.0,0.0
3.2665330661322645,-0.41237365836013906,-1.4085181735010657,0.19479755134538407,-0.9406158236848261,-9.421164711557976,0.0,0.0
