time,x,x_dot,theta,theta_dot,u,x_ref,theta_ref
0.0,-1.7998121185837244,0.0012644597142898728,0.0076936118518846075,-0.0469593572125578,-9.99999999999879,0.0,0.0
0.02004008016032064,-1.8036912780252399,-0.19395797207577764,0.012652476038402562,0.2479432093258977,-9.3816486904951,0.0,0.0
0.04008016032064128,-1.8112349695568588,-0.37718457658094495,0.02317861341648119,0.5263068689039314,-8.511416706048752,0.0,0.0
0.06012024048096192,-1.8221064232647493,-0.5435726853945225,0.038828129175633844,0.7824757879576325,-7.49431119748667,0.0,0.0
0.08016032064128256,-1.8359126838581032,-0.6903130296676983,0.05910189911931995,1.0136884971843052,-6.402465444779057,0.0,0.0
0.1002004008016032,-1.852232429246291,-0.8159872694093955,0.08348406254513471,1.2191081712907386,-5.248480786163124,0.0,0.0
0.12024048096192384,-1.8706206174799338,-0.919409411682135,0.11144616318354211,1.3981050319203696,-4.033213795920844,0.0,0.0
0.1402805611222445,-1.890608663032335,-0.9994022776200631,0.14244521193491563,1.5499524375686762,-2.754801137726055,0.0,0.0
0.16032064128256512,-1.9117036981673021,-1.0547517567483464,0.17592112756024597,1.673795781266516,-1.4113769293322218,0.0,0.0
0.18036072144288576,-1.933387994318552,-1.0842148075624858,0.2112951950776657,1.7687033758709862,-0.0024090734943393866,0.0,0.0
0.2004008016032064,-1.9551190573794945,-1.0865531530471266,0.24797023133390741,1.833751812812086,1.4702915909404195,0.0,0.0
0.22044088176352705,-1.976330758410745,-1.0605850515625281,0.2853327920287944,1.8681280347443496,3.001638500477759,0.0,0.0
0.24048096192384769,-1.996435806186469,-1.0052523887862033,0.3227575338341867,1.8712370902696156,4.582314838299888,0.0,0.0
0.2605210420841683,-2.0148298541714675,-0.919702399249917,0.35961368962785906,1.8428077896836168,6.197720816711376,0.0,0.0
0.280561122244489,-2.030897557606589,-0.8033851717560643,0.395273537209655,1.7829923790897975,7.826782830955624,0.0,0.0
0.3006012024048096,-2.0440209457940437,-0.6561694093727494,0.42912274879163553,1.6924605790990261,9.44071956985854,0.0,0.0
0.32064128256513025,-2.0535905005523594,-0.47847773791578285,0.4605725538240191,1.57249025161918,9.999999999999407,0.0,0.0
0.3406813627254509,-2.0594047202336037,-0.29071098406220536,0.489591275974386,1.4509361075183453,9.999999999999998,0.0,0.0
0.3607214428857715,-2.0614768360715776,-0.10360579189870495,0.5164227735403768,1.3415748782995391,9.999999999999837,0.0,0.0
0.3807615230460922,-2.0598189262528646,0.08289549093566195,0.5412934838290817,1.2435355144352482,9.999999999999993,0.0,0.0
0.4008016032064128,-2.0544419795586317,0.2688473347116507,0.5644138672018237,1.1560191686371006,10.0,0.0,0.0
0.42084168336673344,-2.0453559763892444,0.45430015846936267,0.5859798702689348,1.078300153355557,10.0,0.0,0.0
0.4408817635270541,-2.0325699779193482,0.6392999234948085,0.6061743739105705,1.0097251820817816,9.999999999999341,0.0,0.0
0.4609218436873747,-2.0160922171902707,0.823888036453886,0.6251686047093589,0.9497115399394194,9.999999999999252,0.0,0.0
0.48096192384769537,-1.99593018812765,1.0081014531310308,0.6431234976285196,0.8977446459580376,10.0,0.0,0.0
0.501002004008016,-1.9720907299960673,1.1919729065791431,0.6601910042871348,0.8533753329307593,9.999999999999787,0.0,0.0
0.5210420841683366,-1.9445801058422791,1.3755312076894062,0.6765153456985629,0.8162170705714021,10.0,0.0,0.0
0.5410821643286573,-1.913404074166205,1.5588015838036997,0.692234211399663,0.7859432850550069,10.0,0.0,0.0
0.561122244488978,-1.878567953492066,1.7418060337069483,0.7074799089178133,0.7622848759075171,10.0,0.0,0.0
0.5811623246492986,-1.8400766797624473,1.9245636864809372,0.7223804688001944,0.7450279941190521,9.999999999999984,0.0,0.0
0.6012024048096192,-1.797934856596587,2.1070911582930156,0.7370607111824304,0.7340121191118016,10.0,0.0,0.0
0.6212424849699398,-1.7521467984764978,2.2894029060044554,0.7516432802555278,0.7291284536548714,9.99999999999977,0.0,0.0
0.6412825651302605,-1.7027165668746662,2.4715115800915735,0.7662496531083571,0.7303186426414641,9.99999999999995,0.0,0.0
0.6613226452905812,-1.6496479992304536,2.653428382210637,0.7810011293500464,0.7375738120844635,9.999999999999996,0.0,0.0
0.6813627254509018,-1.5929447305278677,2.8351634351292985,0.7960198076989123,0.750933917443297,9.999999999998357,0.0,0.0
0.7014028056112224,-1.5326102070290981,3.0167261749384755,0.81142955538866,0.7704873844873834,10.0,0.0,0.0
0.721442885771543,-1.4686476914763749,3.198125777636163,0.827356975800297,0.7963710205818512,10.0,0.0,0.0
0.7414829659318637,-1.401060258786752,3.379371634481141,0.8439323791797039,0.828770168970344,9.999999999999998,0.0,0.0
0.7615230460921844,-1.3298507809255633,3.560473893059431,0.8612907606371084,0.867919072870227,10.0,0.0,0.0
0.781563126252505,-1.2550218992483835,3.7414440838589926,0.8795727888298179,0.9141014096354734,9.999999999999998,0.0,0.0
0.8016032064128256,-1.176575982141439,3.922295855347219,0.898925807782027,0.9676509476104551,-7.875156878109879,0.0,0.0
0.8216432865731462,-1.1011913784830476,3.7692301829195705,0.9257344769508067,1.3404334584389814,-7.605399983138412,0.0,0.0
0.8416833667334669,-1.0287470225607989,3.622217796112432,0.9598887695791861,1.70771463141897,-1.4278447068051676,0.0,0.0
0.8617234468937875,-0.9569177423493785,3.5914640105710167,0.9993854159102772,1.9748323165545547,-1.7367804587203712,0.0,0.0
0.8817635270541082,-0.8857959830888678,3.556087963025537,1.0443984719619583,2.250652802584055,2.855006192071386,0.0,0.0
0.9018036072144289,-0.8136549087390498,3.6070537174908983,1.0937246228133242,2.466307542568292,1.4967364457623913,0.0,0.0
0.9218436873747494,-0.7409724987327319,3.634120500315894,1.1478983471835862,2.708686218513096,4.7954029273294205,0.0,0.0
0.9418837675350701,-0.6665041252610538,3.7234186735838986,1.2063319491741564,2.9216800995285093,3.3694018685044345,0.0,0.0
0.9619238476953907,-0.5907432715186344,3.788042687120975,1.2695652676997393,3.161665926279142,5.247412538799803,0.0,0.0
0.9819639278557114,-0.5129642792691479,3.8889496124743257,1.3375127144248808,3.3973723362570776,5.044391798709952,0.0,0.0
1.002004008016032,-0.43319963469155764,3.988232228879514,1.410489198744844,3.648824215998162,4.74874261528992,0.0,0.0
1.0220440881763526,-0.351507950709466,4.084584199104582,1.4888055589762335,3.9158180115694745,4.23182724458282,0.0,0.0
1.0420841683366733,-0.26802054521377505,4.174370274784549,1.572758042072044,4.197624154790519,4.1453250368932055,0.0,0.0
1.062124248496994,-0.18270486042944162,4.265784239216672,1.66259221763765,4.491708778280304,2.6343380520355435,0.0,0.0
1.0821643286573146,-0.09604079891991786,4.333203075476188,1.7584632662073996,4.793552428487481,1.5668258966062307,0.0,0.0
1.1022044088176353,-0.008345128510053479,4.384783520493219,1.8603959830035472,5.09663583980738,0.07007845384074352,0.0,0.0
1.122244488977956,0.0799048242957499,4.4124976402901686,1.9681976068580422,5.390081192724745,-1.7153039071315979,0.0,0.0
1.1422845691382766,0.168112994278563,4.4104084991406545,2.081393373821696,5.6597883481826825,-3.2197491801305596,0.0,0.0
1.1623246492985972,0.255763288367213,4.382514704432501,2.1993072654924366,5.895694583537035,-4.612560712324662,0.0,0.0
1.1823647294589177,0.34234947151316397,4.329309157297549,2.3210366757844314,6.086470514599744,-6.506311573988016,0.0,0.0
1.2024048096192383,0.4271387441649632,4.239463632589962,2.4452281746509654,6.209574943326693,-8.756046971561997,0.0,0.0
1.222444889779559,0.5092163816403034,4.1038818737670075,2.5700704267371846,6.2421126043109485,-9.999999999999952,0.0,0.0
1.2424849699398797,0.5880037794058296,3.9393698882763126,2.693942828241069,6.193620075194213,-9.999999999999998,0.0,0.0
1.2625250501002003,0.663371584406612,3.7683902500391238,2.8157377008601445,6.089743630953772,-9.999999999378206,0.0,0.0
1.282565130260521,0.7351823422624865,3.5905378927937193,2.9343620549431924,5.9312177041524015,-9.999999999982574,0.0,0.0
1.3026052104208417,0.8033012076402938,3.405943268890367,3.0487794978061795,5.720872143149364,-9.999999999955257,0.0,0.0
1.3226452905811623,0.8676058421143042,3.2152317237005255,3.158048395279769,5.463444873679476,-9.999999999987292,0.0,0.0
1.342685370741483,0.9279939941302269,3.0194076007961312,3.261350338412924,5.165097156657755,-9.99999999999982,0.0,0.0
1.3627254509018036,0.9843878663712907,2.819693612053194,3.3580054358266174,4.832754870684665,-10.0,0.0,0.0
1.3827655310621243,1.0367351571911407,2.6173645409925,3.4474741408829983,4.473435252819045,-9.999999999998494,0.0,0.0
1.4028056112224447,1.0850073206008968,2.413608170487802,3.52934797415375,4.0936916635376015,-10.0,0.0,0.0
1.4228456913827654,1.129195944900017,2.2094312149560156,3.603332876810263,3.6992451328256504,-10.0,0.0,0.0
1.442885771543086,1.169308192074685,2.0056123587334023,3.669229015525834,3.2948069357785457,-9.999999999999966,0.0,0.0
1.4629258517034067,1.20536207053994,1.8026939232627446,3.7269101091975534,2.884054683585974,-9.999999999962762,0.0,0.0
1.4829659318637274,1.2373820606529897,1.6009995056524864,3.776304302487346,2.469709664489633,-10.0,0.0,0.0
1.503006012024048,1.2653953708615628,1.4006655104286587,3.8173776530122177,2.053667526243594,-10.0,0.0,0.0
1.5230460921843687,1.2894289190742674,1.2016774106352306,3.850120599392698,1.6371473190240315,-9.999999999999998,0.0,0.0
1.5430861723446894,1.3095070180905235,1.0039049508128062,3.8745373543381314,1.2208377472716612,-9.999999999954401,0.0,0.0
1.56312625250501,1.3256496852837905,0.8071333596633482,3.890637964531217,0.805030509654278,-9.999999999999998,0.0,0.0
1.5831663326653307,1.3378714788275945,0.6110896771902044,3.898432724458058,0.38973799634206335,-9.99999999997638,0.0,0.0
1.6032064128256511,1.3461807706047977,0.415464588860155,3.8979286630443095,-0.025203070687440488,-9.999999999999998,0.0,0.0
1.6232464929859718,1.350579388464822,0.21993089300121438,3.889127897844935,-0.44003825996872015,-9.999999999999998,0.0,0.0
1.6432865731462925,1.3510625904668345,0.02416010010062039,3.8720277466960913,-0.855007557442192,-9.999999999898593,0.0,0.0
1.6633266533066131,1.3476193667278755,-0.17216118694795265,3.8466225880432123,-1.270257932643943,-9.99999999998866,0.0,0.0
1.6833667334669338,1.3402330975185353,-0.36931346046700825,3.812907561354101,-1.685751334455562,-9.999999999898794,0.0,0.0
1.7034068136272544,1.3288826265274996,-0.5675235495517835,3.7708842911819853,-2.1011635086057896,-9.999999999999996,0.0,0.0
1.723446893787575,1.3135438318738117,-0.7669397326843888,3.7205688905633414,-2.5157700309321855,-9.999999999999996,0.0,0.0
1.7434869739478958,1.294191788281725,-0.9676021796043369,3.662002528958152,-2.9283180802594537,-9.999999999999996,0.0,0.0
1.7635270541082164,1.2708036022460523,-1.1694093017836389,3.595264798690104,-3.3368865134024057,-9.999999996999978,0.0,0.0
1.783567134268537,1.2433619546954424,-1.3720823775304898,3.5204899259427167,-3.738743637369367,-9.999999998006388,0.0,0.0
1.8036072144288577,1.2118592871923681,-1.5751333751537104,3.437885480575364,-4.130222268367639,-9.999999999575278,0.0,0.0
1.8236472945891782,1.1763024061090754,-1.7778440541646325,3.3477525884868267,-4.5066446044268655,-9.99999999545318,0.0,0.0
1.8436873747494988,1.1367170569913663,-1.9792674558854557,3.2505057479089494,-4.862342028893867,-9.999999990411238,0.0,0.0
1.8637274549098195,1.0931517718023849,-2.178264259449069,3.1466893382545598,-5.1908204827194835,-9.99999998238881,0.0,0.0
1.8837675350701402,1.0456800930472099,-2.373583937758754,3.0369871246070557,-5.485110682375207,-9.999999999999998,0.0,0.0
1.9038076152304608,0.9944002492749756,-2.563992188611711,2.9222210118836975,-5.738305636167912,-9.999999999991642,0.0,0.0
1.9238476953907815,0.9394316126743952,-2.7484318300290203,2.8033364744638,-5.944226870994869,-9.999999999999858,0.0,0.0
1.9438877755511021,0.8809078455256982,-2.926188357434852,2.681374577420802,-6.098094852149895,-9.999999999850106,0.0,0.0
1.9639278557114228,0.8189674164567793,-3.0970214534459495,2.5574337146481194,-6.1970431386341325,-9.999999999923547,0.0,0.0
1.9839679358717435,0.753742868788748,-3.2612273834015664,2.4326269007627754,-6.2403406942672035,-9.999999999999998,0.0,0.0
2.004008016032064,0.6853505595955584,-3.41961545965948,2.3080414513818557,-6.229272469045992,-9.999999999999998,0.0,0.0
2.024048096192385,0.6138824211058171,-3.573406924487059,2.184706727670671,-6.166736185559221,-9.999999999924137,0.0,0.0
2.0440881763527052,0.5394007257868703,-3.724084765947347,2.0635729283831306,-6.056689964377025,-9.284694985917433,0.0,0.0
2.064128256513026,0.4622002626705815,-3.8600231558144382,1.9456882446204011,-5.894234188136468,-5.893086096029702,0.0,0.0
2.0841683366733466,0.38352217415561907,-3.9339044257481235,1.8324606702509247,-5.661378718473825,-1.238852886028135,0.0,0.0
2.1042084168336674,0.3050240725214984,-3.924905081706035,1.7249791947258162,-5.374073776255427,4.892078912279469,0.0,0.0
2.124248496993988,0.22886808003501308,-3.8077996243242658,1.6238435267682112,-5.056783397880252,9.999999999999407,0.0,0.0
2.1442885771543083,0.15682765656010533,-3.6020211737453867,1.5289030411377311,-4.747024281524002,9.999999999999748,0.0,0.0
2.164328657314629,0.08882225609226876,-3.4002700233918284,1.439580398875197,-4.4661321131267115,9.999999999999998,0.0,0.0
2.1843687374749496,0.024782740817784643,-3.2019757637242057,1.3553057114981655,-4.213734368851569,9.999999999988647,0.0,0.0
2.2044088176352705,-0.03534866687235458,-3.006570384506961,1.2755187375863521,-3.9893486955906656,9.999999999999996,0.0,0.0
2.224448897795591,-0.09161895759684249,-2.813514536224396,1.1996694154254883,-3.7924661080431874,9.99999999999962,0.0,0.0
2.244488977955912,-0.14406518619962716,-2.622311430139234,1.127217370004593,-3.622602271044761,7.645394616074173,0.0,0.0
2.2645290581162323,-0.19358254023158705,-2.4758677015979944,1.058188628437354,-3.451437078361948,4.4405305057919495,0.0,0.0
2.284569138276553,-0.2413824194419139,-2.3899939605163434,0.9930182033395687,-3.2585212548892706,1.638807844845703,0.0,0.0
2.3046092184368736,-0.2885336712927615,-2.357562592542377,0.9322391961362612,-3.0389503601653756,-0.586292202860212,0.0,0.0
2.3246492985971945,-0.33589624362727966,-2.36812861672591,0.8763674390951887,-2.793587852053623,-2.2479056254078706,0.0,0.0
2.344689378757515,-0.38412265682410723,-2.4113206598413783,0.8258398656245017,-2.526378673534346,-3.423135286416703,0.0,0.0
2.3647294589178354,-0.43368344302912315,-2.4780393102507965,0.7809881720225703,-2.2425846800965727,-4.191871015734388,0.0,0.0
2.3847695390781563,-0.4848944396747166,-2.560549832279674,0.7420302208327729,-1.9478975594898702,-4.620596523716971,0.0,0.0
2.4048096192384767,-0.5379400007563611,-2.652278054082219,0.709070521990778,-1.6479849420997452,-4.760568912736585,0.0,0.0
2.4248496993987976,-0.5928913273500638,-2.7475663296851334,0.6821053336818996,-1.348259415443921,-4.65290880644096,0.0,0.0
2.444889779559118,-0.6497216451902001,-2.8415158920068184,0.6610312265584927,-1.0537053561703495,-4.314126347244255,0.0,0.0
2.464929859719439,-0.7083125336388246,-2.929544422431222,0.6456480628065597,-0.7691581875966467,-3.7777903382089804,0.0,0.0
2.4849699398797593,-0.7684670296699083,-3.007724801554185,0.6356729136610892,-0.4987574572735268,-3.0505913175039456,0.0,0.0
2.50501002004008,-0.8299127235631659,-3.0722846946628777,0.6307441658031331,-0.24643739289780725,-2.134193176982129,0.0,0.0
2.5250501002004007,-0.8923030305421776,-3.119515348950583,0.6304245316603267,-0.01598170714031591,-1.0798935487028574,0.0,0.0
2.5450901803607215,-0.9552374021285889,-3.146718579320562,0.634227733224951,0.19016007823121348,0.09125256637880197,0.0,0.0
2.565130260521042,-1.018270041401638,-3.15163196365245,0.6416316476033885,0.3701957189218813,1.3687270448049078,0.0,0.0
2.5851703406813624,-1.0809145678175842,-3.1322263207973187,0.6520864674405955,0.5227409918603468,2.795737333249156,0.0,0.0
2.6052104208416833,-1.1426282104625758,-3.0856821322495733,0.664998180058511,0.6455856308957746,4.320155597554254,0.0,0.0
2.6252505010020037,-1.202832212467745,-3.0102001002584693,0.6797550938236518,0.7378456882570436,5.8880743863522484,0.0,0.0
2.6452905811623246,-1.2609327643651633,-2.905027594870913,0.6957535508152393,0.7999228495793691,7.508004224979716,0.0,0.0
2.665330661322645,-1.3163180843007694,-2.769265996780301,0.7123942752119099,0.8320362198335293,9.55360818169762,0.0,0.0
2.685370741482966,-1.3682172159664014,-2.5949565832815997,0.7289210030345292,0.8263363911309645,10.0,0.0,0.0
2.7054108216432864,-1.4164660340658237,-2.412440904971114,0.7452801811416616,0.817958905356621,9.999999999999948,0.0,0.0
2.7254509018036073,-1.461069200921001,-2.23015834275886,0.7616082915197016,0.8164055189019958,9.999999999999673,0.0,0.0
2.7454909819639277,-1.502031085613064,-2.0480942346031625,0.7780411021106117,0.8216405295455091,10.0,0.0,0.0
2.7655310621242486,-1.5393557892366598,-1.8662351811797908,0.7947147580958118,0.833682799260007,9.999999999999888,0.0,0.0
2.785571142284569,-1.5730471606336647,-1.6845685698502444,0.8117668604384759,0.852605117133206,10.0,0.0,0.0
2.8056112224448895,-1.6031088017670985,-1.5030820566716856,0.8293375372911714,0.8785338426347777,9.999999999999435,0.0,0.0
2.8256513026052104,-1.62954406157257,-1.3217629902735808,0.8475705132640556,0.911648798644211,9.999999999999986,0.0,0.0
2.845691382765531,-1.6523560167384457,-1.1405977582937807,0.866614180778149,0.9521833757046665,10.0,0.0,0.0
2.8657314629258517,-1.6715474374127663,-0.9595710337160286,0.8866226767887411,1.000424800529604,9.999999999990896,0.0,0.0
2.885771543086172,-1.6871207353097017,-0.7786648948467747,0.9077569670388262,1.0567145125042612,9.143947439931036,0.0,0.0
2.905811623246493,-1.69939743192106,-0.6138348305679163,0.9304807777027286,1.136190533195121,10.0,0.0,0.0
2.9258517034068134,-1.7080589856259825,-0.43307768524612306,0.9546790889454633,1.20991556213673,9.99999999198017,0.0,0.0
2.9458917835671343,-1.7131061837270778,-0.25235990505476713,0.9805422490194061,1.293158003697142,9.999999999999112,0.0,0.0
2.9659318637274548,-1.7145389759875047,-0.07163961302134914,1.0082718260993122,1.3864788539953077,10.0,0.0,0.0
2.9859719438877756,-1.7123562697933805,0.10913530970621443,1.03808171731919,1.4904945609938898,9.99999999999604,0.0,0.0
3.006012024048096,-1.706555676850977,0.2900296471201687,1.0701992398106863,1.6058761245748097,9.999999999999536,0.0,0.0
3.0260521042084165,-1.6971332036839313,0.47112365835228553,1.1048661911396598,1.7333475664486755,10.0,0.0,0.0
3.0460921843687374,-1.6840828777771335,0.6525162953398903,1.142339863350056,1.8736836105198167,9.999999999999739,0.0,0.0
3.066132264529058,-1.6673963013081612,0.8343288234486205,1.182893991312196,2.0277063981070023,9.999999999324979,0.0,0.0
3.0861723446893787,-1.6470621253062137,1.0167088000973774,1.2268196120103345,2.1962810349069266,10.0,0.0,0.0
3.106212424849699,-1.6230654392312798,1.199834303746692,1.2744258063145695,2.3803097152117503,9.999999999999968,0.0,0.0
3.12625250501002,-1.595387075003373,1.3839182113953388,1.3260402876877708,2.5807240686600648,10.0,0.0,0.0
3.1462925851703405,-1.564002831274639,1.5692121864366941,1.3820097913268417,2.798475181953542,9.999999999980842,0.0,0.0
3.1663326653306614,-1.5288826344019497,1.7560098436344638,1.4427001991918769,3.034520393251765,10.0,0.0,0.0
3.186372745490982,-1.4899896686814451,1.944648286025227,1.5084963058187089,3.289805331341595,10.0,0.0,0.0
3.2064128256513023,-1.4472795320051157,2.135506833816473,1.579801078181162,3.5652386181226574,10.0,0.0,0.0
3.226452905811623,-1.400699506837155,2.3290012583980295,1.6570341773187194,3.8616549568778717,9.999999999999917,0.0,0.0
3.2464929859719436,-1.35018808355984,2.525571163865748,1.7406293718807713,4.1797597281026,10.0,0.0,0.0
3.2665330661322645,-1.295674937490255,2.7256573034792537,1.8310302608826798,4.520044450095424,9.999999999999309,0.0,0.0
3.286573146292585,-1.2370816454434233,2.9296646023415844,1.9286834093495535,4.882657423343684,10.0,0.0,0.0
3.306613226452906,-1.1743235329958015,3.1379056223810853,2.03402756834856,5.267207949950312,9.999999999999998,0.0,0.0
3.3266533066132262,-1.1073131616909557,3.350518565242287,2.147477114128175,5.6724772889807635,9.999999999999995,0.0,0.0
