time,x,x_dot,theta,theta_dot,u,x_ref,theta_ref
0.0,0.8166121264542783,0.03233374416049481,-0.17240270550719103,0.040560329421943764,0.08898783153255696,0.0,0.0
0.02004008016032064,0.8173417862218707,0.036482988379621245,-0.17272213785172794,-0.015971617226844724,-0.249133221091713,0.0,0.0
0.04008016032064128,0.818022861549567,0.03405376638481463,-0.17397975547838052,-0.06288088133262881,-0.5914997363820316,0.0,0.0
0.06012024048096192,0.8185223715191383,0.024975498478565346,-0.17598651621771808,-0.10033803696687826,-0.936244299439599,0.0,0.0
0.08016032064128256,0.818706615931543,0.00921222062023876,-0.17855679813506245,-0.128514095867219,-1.2788064231475884,0.0,0.0
0.1002004008016032,0.8184429128084796,-0.013185156153173977,-0.18150994617940527,-0.14765740221714166,-1.6155349355295825,0.0,0.0
0.12024048096192384,0.8176009790569859,-0.042096687574681504,-0.18467129442988955,-0.15806741252421472,-1.9428275319033077,0.0,0.0
0.1402805611222445,0.8160542897349158,-0.0773344661035065,-0.1878731645449572,-0.16009350575338177,-2.257133119847537,0.0,0.0
0.16032064128256512,0.8136814153321393,-0.11864372013882345,-0.19095584530989795,-0.15413403824703772,-2.5549906659767867,0.0,0.0
0.18036072144288576,0.8103673223303478,-0.16570465008957513,-0.19376853835976107,-0.1406346524931564,-2.8330764849497756,0.0,0.0
0.2004008016032064,0.806004619168851,-0.2181351580748385,-0.19617025189171933,-0.12008567659791265,-3.0882568837894415,0.0,0.0
0.22044088176352705,0.8004947278647101,-0.2754945652070445,-0.19803062284742254,-0.09301854778516022,-3.3176430749975623,0.0,0.0
0.24048096192384769,0.793748960872697,-0.337288349600657,-0.1992306483423982,-0.06000127474878263,-3.5186447480133607,0.0,0.0
0.2605210420841683,0.7856894834879193,-0.4029738692388837,-0.19966330905099897,-0.021633035430037688,-3.689018474604981,0.0,0.0
0.280561122244489,0.7762501442394417,-0.47196696242387864,-0.19923407068990878,0.021461918054508707,-3.826907305428757,0.0,0.0
0.3006012024048096,0.7653771591995138,-0.5436492519963974,-0.19786125439857916,0.06864081456648091,-3.9308685046268375,0.0,0.0
0.32064128256513025,0.7530296406956191,-0.6173759251947377,-0.19547627227740966,0.1192491060584752,-3.9998873158048114,0.0,0.0
0.3406813627254509,0.7391799661911703,-0.6924837252224387,-0.19202373010922952,0.17262710840900672,-4.033375845092301,0.0,0.0
0.3607214428857715,0.7238139886417845,-0.7682988774692949,-0.1874614048183889,0.2281162645420301,-4.031157433927599,0.0,0.0
0.3807615230460922,0.7069310949575947,-0.8441446842094914,-0.1817601090071264,0.2850647905631248,-3.9934381115087034,0.0,0.0
0.4008016032064128,0.6885441238617246,-0.9193485547935013,-0.17490345853435024,0.3428325236388082,-3.9207677187525456,0.0,0.0
0.42084168336673344,0.6686791580710739,-0.9932482895325323,-0.16688756128651516,0.4007948623917543,-3.813993979312063,0.0,0.0
0.4408817635270541,0.6473752081008323,-1.065197498512082,-0.15772064591075982,0.4583457687877675,-3.674213112261509,0.0,0.0
0.4609218436873747,0.6246838060093463,-1.1345701045743015,-0.14742264837053226,0.5148998770113786,-3.5027205449316288,0.0,0.0
0.48096192384769537,0.6006685270882051,-1.2007639460570598,-0.13602477191312132,0.5698938228705476,-3.300964947820318,0.0,0.0
0.501002004008016,0.5754044560074394,-1.2632035540382847,-0.12356903267828785,0.6227869617416731,-3.070508257962911,0.0,0.0
0.5210420841683366,0.5489776114708536,-1.321342226829291,-0.11010779906231463,0.6730616807986608,-2.812993673423416,0.0,0.0
0.5410821643286573,0.5214843402905157,-1.3746635590168939,-0.09570332844314997,0.7202235309582337,-2.5301228719730715,0.0,0.0
0.561122244488978,0.49303068823595436,-1.4226826027280668,-0.08042730032688938,0.7638014058130291,-2.2236429977388914,0.0,0.0
0.5811623246492986,0.463731751326584,-1.4649468454685186,-0.06436034072414308,0.803347980137315,-1.895343314106513,0.0,0.0
0.6012024048096192,0.43371100766322584,-1.5010371831679084,-0.04759152889665196,0.838440591374556,-1.5470608628400884,0.0,0.0
0.6212424849699398,0.403099626649075,-1.5305690507075422,-0.030217874769826215,0.8686827063412873,-1.1806940036860503,0.0,0.0
0.6412825651302605,0.3720357497068483,-1.5531938471113376,-0.012343753470773475,0.893706064952637,-0.7982223311562167,0.0,0.0
0.6613226452905812,0.340663734494449,-1.568600760619966,0.005919717250487663,0.9131735360630568,-0.40173116346018256,0.0,0.0
0.6813627254509018,0.3091333532595848,-1.5765190617432103,0.02445537046331661,0.9267826606414473,0.006561438849180534,0.0,0.0
0.7014028056112224,0.2775989354269547,-1.5767208916315048,0.04314076641842572,0.9342697977554554,0.42427735186506416,0.0,0.0
0.721442885771543,0.24621844482586372,-1.5690245300545484,0.06184906106894805,0.9354147325261165,0.8488531291198983,0.0,0.0
0.7414829659318637,0.21515248316300356,-1.5532980831430079,0.08044997218003082,0.9300455555541381,1.2775192578681973,0.0,0.0
0.7615230460921844,0.18456321342385154,-1.5294634869576011,0.09881084384298605,0.9180435831477617,1.7072864170925803,0.0,0.0
0.781563126252505,0.15461319982272967,-1.4975006800560942,0.11679780502855412,0.8993480592784033,2.134941180575378,0.0,0.0
0.8016032064128256,0.1254641646657792,-1.4574517578475232,0.13427701233011455,0.8739603650780219,2.557053459066285,0.0,0.0
0.8216432865731462,0.09727566695902262,-1.409424885337829,0.15111596154302606,0.8419474606455761,2.9699976775555776,0.0,0.0
0.8416833667334669,0.07020371265592786,-1.3535977151547385,0.16718484748540885,0.8034442971191393,3.369989185463001,0.0,0.0
0.8617234468937875,0.044399311904537386,-1.2902200375695232,0.18235794677113817,0.7586549642864668,3.7531366488452713,0.0,0.0
0.8817635270541082,0.020007004253693113,-1.2196153825422136,0.19651499437866332,0.7078523803762566,4.115510140861834,0.0,0.0
0.9018036072144289,-0.002836621849765547,-1.142181305172933,0.20954252210328056,0.6513763862308622,4.453223336358128,0.0,0.0
0.9218436873747494,-0.024004384247537522,-1.0583881198885987,0.22133512562222207,0.5896301759470756,4.762526699479543,0.0,0.0
0.9418837675350701,-0.04337990242013075,-0.9687759086296615,0.2317966272175505,0.5230750797664223,5.0399069847553175,0.0,0.0
0.9619238476953907,-0.060858896719396496,-0.8739497149632874,0.24084110342170398,0.4522238102076729,5.28218698165067,0.0,0.0
0.9819639278557114,-0.07635035564244287,-0.7745729461523188,0.24839375110448816,0.37763238413920897,5.486618502435363,0.0,0.0
1.002004008016032,-0.08977753825151788,-0.6713591304537504,0.2543915717682996,0.2998910331905714,5.65096140594275,0.0,0.0
1.0220440881763526,-0.10107878433816017,-0.5650623043321147,0.2587838617927398,0.21961450122201237,5.773542138649903,0.0,0.0
1.0420841683366733,-0.11020811269442188,-0.45646641781308506,0.2615325055501885,0.13743218787243372,5.85328687142243,0.0,0.0
1.062124248496994,-0.11713559728847021,-0.3463742297024168,0.2626120779567577,0.05397862032845954,5.889726638208155,0.0,0.0
1.0821643286573146,-0.12184752138827501,-0.23559620499023948,0.26200977224876204,-0.03011528539978174,5.882974601103898,0.0,0.0
1.1022044088176353,-0.12434631974522845,-0.1249399178476716,0.25972517669740697,-0.11422977756775479,5.833678247946536,0.0,0.0
1.122244488977956,-0.1246503278726901,-0.015200406373082995,0.25576992984138325,-0.19776234280118646,5.742951564186975,0.0,0.0
1.1422845691382766,-0.12279336443732827,0.09284817176809188,0.25016728712424713,-0.28013213585680463,5.6122937109139395,0.0,0.0
1.1623246492985972,-0.11882417730654013,0.1984593565394075,0.2429516323772701,-0.3607827373488518,5.443501354178707,0.0,0.0
1.1823647294589177,-0.11280578566866781,0.3009195818936162,0.23416796550489333,-0.43918334361883893,5.238581564283068,0.0,0.0
1.2024048096192383,-0.10481474997567887,0.39955178464944696,0.2238713933814047,-0.5148286061744316,4.999671308595393,0.0,0.0
1.222444889779559,-0.0949403986030652,0.493717568630683,0.21212664489614255,-0.5872374242631067,4.728968239235423,0.0,0.0
1.2424849699398797,-0.08328403558331626,0.5828181509874472,0.19900762390854693,-0.6559510493797817,4.42867597558269,0.0,0.0
1.2625250501002003,-0.06995814811311131,0.6662943735102473,0.18459700620779246,-0.7205308850377234,4.100965610667535,0.0,0.0
1.282565130260521,-0.05508562631168582,0.7436260900712744,0.16898587896853062,-0.7805563619630916,3.7479538726915256,0.0,0.0
1.3026052104208417,-0.038799001404942815,0.8143312453371504,0.1522734141205708,-0.8356232423979909,3.37169732191715,0.0,0.0
1.3226452905811623,-0.021239702522279916,0.877964944133145,0.13456656087878982,-0.885342662089049,2.9742011732209996,0.0,0.0
1.342685370741483,-0.0025573269207668364,0.934118780075654,0.1159797376980011,-0.9293411590394357,2.5574407780977926,0.0,0.0
1.3627254509018036,0.01709108609161844,0.9824206506192638,0.09663450034305868,-0.9672618677471214,2.1233934283817204,0.0,0.0
1.3827655310621243,0.037541790831002536,1.0225352369692047,0.07665916075462154,-0.9987669794218567,1.6740779018673957,0.0,0.0
1.4028056112224447,0.05862509631051106,1.0541652739754261,0.05618833104867675,-1.023541485297239,1.2115990083242323,0.0,0.0
1.4228456913827654,0.08016616989022629,1.0770536789857612,0.03536236835804435,-1.04129813453162,0.7381942752737611,0.0,0.0
1.442885771543086,0.10198590090973637,1.0909865509755041,0.014326699284741739,-1.0517834536651305,0.25627981298806163,0.0,0.0
1.4629258517034067,0.12390184077061878,1.0957969930441205,-0.0067689926161263875,-1.0547845950434063,-0.23150769092346396,0.0,0.0
1.4829659318637274,0.14572923383865016,1.0913696534015698,-0.027771726841751145,-1.0501367112812379,-0.7222759707512327,0.0,0.0
1.503006012024048,0.16728215030030566,1.0776458230827746,-0.048526336760295705,-1.0377304959272278,-1.2128523374275657,0.0,0.0
1.5230460921843687,0.1883747277769586,1.054628873832647,-0.06887672657456513,-1.0175194907134715,-1.6997721184298813,0.0,0.0
1.5430861723446894,0.20882252314183575,1.022389768243857,-0.08866726137198361,-0.9895267398709234,-2.1792833565380145,0.0,0.0
1.56312625250501,0.22844396970753086,0.9810723282847559,-0.1077442688426637,-0.9538503735340049,-2.647370387981355,0.0,0.0
1.5831663326653307,0.24706192792345288,0.9308979107961008,-0.12595762335835403,-0.9106677257845168,-3.099798283160379,0.0,0.0
1.6032064128256511,0.26450531019625567,0.872169113640138,-0.14316237612408833,-0.8602376382867147,-3.532179122007038,0.0,0.0
1.6232464929859718,0.28061075279046777,0.8052721297106042,-0.15922038947550476,-0.8029006675708217,-3.9400596302979842,0.0,0.0
1.6432865731462925,0.29522430048680465,0.7306773848168452,-0.17400192953200913,-0.7390770028252184,-4.31902782628464,0.0,0.0
1.6633266533066131,0.30820306341632336,0.6489381464759367,-0.1873871697609814,-0.6692620114486145,-4.664834134591972,0.0,0.0
1.6833667334669338,0.31941680099529796,0.560686878948729,-0.1992675589639046,-0.5940194601461594,-4.973520165489772,0.0,0.0
1.7034068136272544,0.3287493859204076,0.46662924625548097,-0.20954701107582688,-0.5139726055961134,-5.241546413971977,0.0,0.0
1.723446893787575,0.3361001023913115,0.36753582354519426,-0.21814288110419264,-0.42979350141828815,-5.465908948642702,0.0,0.0
1.7434869739478958,0.341384737478712,0.2642317543700267,-0.22498670135873686,-0.34219101272721064,-5.644235134336756,0.0,0.0
1.7635270541082164,0.3445364328062125,0.15758476637502283,-0.23002466430287358,-0.2518981472068366,-5.774849784307532,0.0,0.0
1.783567134268537,0.34550627492802427,0.04849210609058836,-0.23321785196226727,-0.15965938296968396,-5.856805806066596,0.0,0.0
1.8036072144288577,0.34426361596098976,-0.06213294835172445,-0.23454222562507496,-0.06621868314038477,-5.889877023294836,0.0,0.0
1.8236472945891782,0.3407961298385873,-0.17337430612012297,-0.2339884021944109,0.027691171533202996,-5.874514829422374,0.0,0.0
1.8436873747494988,0.3351096225558017,-0.2843253641392814,-0.23156125373139202,0.12135742315094328,-5.811773983748012,0.0,0.0
1.8637274549098195,0.32722762565930785,-0.39409984482469057,-0.22727937348639068,0.21409401225006686,-5.703215622843509,0.0,0.0
1.8837675350701402,0.31719081003874644,-0.5018407810280694,-0.2211744545379176,0.3052459474236551,-5.55079708071135,0.0,0.0
1.9038076152304608,0.30505626128363594,-0.6067274377555254,-0.21329062602106158,0.3941914258428013,-5.3567583264168395,0.0,0.0
1.9238476953907815,0.29089665845579105,-0.7079801413922462,-0.20368378725006125,0.48034193855001683,-5.123513918919313,0.0,0.0
1.9438877755511021,0.2747993954642564,-0.804863149576732,-0.19242097255816898,0.5631407345946139,-4.853557687962432,0.0,0.0
1.9639278557114228,0.2568656789719531,-0.8966858246151659,-0.1795797702903368,0.6420601133916083,-4.549385268159256,0.0,0.0
1.9839679358717435,0.2372096296982076,-0.9828024636872748,-0.16524780900927488,0.7165980640530962,-4.2134374920236475,0.0,0.0
2.004008016032064,0.2159574059044035,-1.0626111896902066,-0.1495223134498875,0.7862747779693685,-3.8480657416930826,0.0,0.0
2.024048096192385,0.1932463594734129,-1.13555232154953,-0.13250972278004466,0.8506295334921417,-3.4555188093777565,0.0,0.0
2.0440881763527052,0.1692242268976247,-1.2011066287894097,-0.1143253548453387,0.9092183967352979,-3.0379496635163767,0.0,0.0
2.064128256513026,0.14404835011092287,-1.2587938393350917,-0.09509309270403293,0.9616131070652884,-2.5974397276216648,0.0,0.0
2.0841683366733466,0.1178849157404124,-1.308171718525523,-0.0749450641989564,1.0074014252538266,-2.1360377765336542,0.0,0.0
2.1042084168336674,0.09090819621155434,-1.348835976442903,-0.05402128178519394,1.0461891206881229,-1.655810253768649,0.0,0.0
2.124248496993988,0.06329977233556282,-1.3804211937995763,-0.032469208485091404,1.0776036650051268,-1.1588996307454364,0.0,0.0
2.1442885771543083,0.035247714608757044,-1.4026028863402884,-0.010443216754171428,1.1012995865459987,-0.6475873010994165,0.0,0.0
2.164328657314629,0.006945699494948977,-1.4151007556904034,0.011896089791914158,1.1169653273042792,-0.1243573859833419,0.0,0.0
2.1843687374749496,-0.02140796254206438,-1.4176831018506677,0.034382716524229265,1.1243313366157555,0.4080423042936757,0.0,0.0
2.2044088176352705,-0.04961140853836052,-1.410172299814807,0.056846297314054696,1.1231790394912715,0.9465460590679814,0.0,0.0
2.224448897795591,-0.07746043194956719,-1.3924511705603333,0.07911330207518555,1.1133502380565428,1.4877268777613215,0.0,0.0
2.244488977955912,-0.10474983205660966,-1.3644700053521237,0.1010084310163213,1.0947564470567874,2.027768121809766,0.0,0.0
2.2645290581162323,-0.13127491070483188,-1.3262539324111107,0.12235618365878365,1.0673876321231175,2.5624545029334227,0.0,0.0
2.284569138276553,-0.15683311565617156,-1.2779102475669835,0.14298257993205912,1.0313198136637738,3.087186607041124,0.0,0.0
2.3046092184368736,-0.1812258210117204,-1.2196352677774434,0.16271700031404937,0.9867210190995122,3.5970227396043613,0.0,0.0
2.3246492985971945,-0.20426022526839682,-1.1517202128338209,0.18139410251731852,0.9338551101634581,4.086750958241883,0.0,0.0
2.344689378757515,-0.22575133694536925,-1.0745555838486207,0.19885576410386457,0.873083079327302,4.550992530854001,0.0,0.0
2.3647294589178354,-0.24552400691672394,-0.9886334985677345,0.21495299413444666,0.8048615015291039,4.984335583203096,0.0,0.0
2.3847695390781563,-0.2634149564627786,-0.8945474773027353,0.22954775309812347,0.7297379481838407,5.381494397563458,0.0,0.0
2.4048096192384767,-0.279274741733549,-0.792989263538518,0.24251461959180037,0.6483433246838448,5.737485976416212,0.0,0.0
2.4248496993987976,-0.29296959012450335,-0.6847424195477176,0.2537422452289084,0.5613812818554029,6.047811686911833,0.0,0.0
2.444889779559118,-0.30438304329828797,-0.570672658689232,0.263134546621008,0.4696150696049779,6.308628899189986,0.0,0.0
2.464929859719439,-0.3134173462258834,-0.45171514637977134,0.2706115951951288,0.37385242870604046,6.5168964215681155,0.0,0.0
2.4849699398797593,-0.3199945320005578,-0.32885928873371767,0.27611018166892876,0.27492932368999756,6.670478867859298,0.0,0.0
2.50501002004008,-0.32405716775314125,-0.20313178762917497,0.27958405104233597,0.17369346867036076,6.768198977879451,0.0,0.0
2.5250501002004007,-0.32556874630816596,-0.07557892775123423,0.28100382413190117,0.07098865447825878,6.809832797505255,0.0,0.0
2.5450901803607215,-0.3245137291010362,0.05275086035648752,0.28035664072906885,-0.03235917014161693,6.796049416134797,0.0,0.0
2.565130260521042,-0.3208972658561798,0.18082316224282236,0.277645575192665,-0.13555327682019486,6.728303325688853,0.0,0.0
2.5851703406813624,-0.31474463331634545,0.3076316269917165,0.2728888859494968,-0.23783446215840814,6.608692239350061,0.0,0.0
2.6052104208416833,-0.30610044722765256,0.43220930443464495,0.2661191650252657,-0.338486046211554,6.439795701441252,0.0,0.0
2.6252505010020037,-0.2950277079818753,0.5536369622888632,0.2573824523035517,-0.43683563608570053,6.224509944186505,0.0,0.0
2.6452905811623246,-0.2816067408202925,0.6710483580791381,0.24673737243350666,-0.5322539935022533,5.965892613364301,0.0,0.0
2.665330661322645,-0.2659340870416678,0.783632688931236,0.23425434142016283,-0.6241515506671916,5.667027898183182,0.0,0.0
2.685370741482966,-0.24812139440291686,0.8906346319375472,0.22001487639981573,-0.7119732510173546,5.330919023511171,0.0,0.0
2.7054108216432864,-0.22829434419095884,0.9913525105979009,0.20411102735102085,-0.7951924524397441,4.960411629056088,0.0,0.0
2.7254509018036073,-0.20659164054987422,1.085135182054231,0.18664493473065735,-0.8733046310181755,4.558148683757813,0.0,0.0
2.7454909819639277,-0.1831640756307387,1.1713782459567765,0.16772850318053217,-0.9458215775062595,4.126555445397035,0.0,0.0
2.7655310621242486,-0.15817367278450148,1.249520142311861,0.14748316917518894,-1.0122667002671617,3.6678515707025605,0.0,0.0
2.785571142284569,-0.13179289986972806,1.319038645738671,0.1260397302137909,-1.072171948069902,3.184086686073692,0.0,0.0
2.8056112224448895,-0.10420393610962422,1.379448188005192,0.1035381951982358,-1.1250767507777544,2.677195368093692,0.0,0.0
2.8256513026052104,-0.07559796896609175,1.430298357176624,0.08012761021302907,-1.1705292492603365,2.1490673797733844,0.0,0.0
2.845691382765531,-0.04617449226910024,1.4711738348495753,0.05596581122010873,-1.208089949646017,1.6016290167840213,0.0,0.0
2.8657314629258517,-0.016140573366724587,1.5016959451187826,0.03121905535861526,-1.2373377930746732,1.0369314336992108,0.0,0.0
2.885771543086172,0.014289944654088248,1.5215259010406417,0.006061485685921145,-1.257878483634706,0.45724178077635036,0.0,0.0
2.905811623246493,0.04489733958686826,1.5303697466390005,-0.019325609709526168,-1.2693547697723655,-0.13486714267227962,0.0,0.0
2.9258517034068134,0.07545703768608737,1.527984904960956,-0.04475477443308265,-1.2714582361778242,-0.7364332325748905,0.0,0.0
2.9458917835671343,0.1057408007913523,1.5141881552632466,-0.07003361530214551,-1.2639420434531428,-1.3440322504275262,0.0,0.0
2.9659318637274548,0.13551809628834613,1.488864774849691,-0.09496629452102431,-1.2466339609439405,-1.9537210440077595,0.0,0.0
2.9859719438877756,0.16455766614427605,1.4519784927964967,-0.11935527413593301,-1.219448980745435,-2.5610024836619525,0.0,0.0
3.006012024048096,0.19262930240464848,1.4035818130186222,-0.14300328975121765,-1.1824007807642318,-3.1608181787140808,0.0,0.0
3.0260521042084165,0.219505825857269,1.3438261726310252,-0.16571551614891264,-1.1356113198847497,-3.7475752192777065,0.0,0.0
3.0460921843687374,0.24496525206563988,1.272971310418544,-0.1873018740209662,-1.0793178936026788,-4.315212856092305,0.0,0.0
3.066132264529058,0.2687931147908493,1.1913931362604693,-0.2075794149967433,-1.0138770487888544,-4.857313772050004,0.0,0.0
3.0861723446893787,0.29078490138579005,1.0995893297470378,-0.22637471201058432,-0.9397648506920515,-5.367261959227639,0.0,0.0
3.106212424849699,0.3107485389420861,0.9981818778148028,-0.24352617442441105,-0.8575731206913357,-5.838444871794589,0.0,0.0
3.12625250501002,0.3285068552719815,0.8879158164947698,-0.2588862031031894,-0.7680014339389168,-6.264491539281675,0.0,0.0
3.1462925851703405,0.3438999272732229,0.7696536000620713,-0.2723231010620962,-0.6718448979453391,-6.6395313888749135,0.0,0.0
3.1663326653306614,0.3567872232602195,0.6443647993498302,-0.2837226617250212,-0.5699780331462502,-6.958452019298356,0.0,0.0
