time,x,x_dot,theta,theta_dot,u,x_ref,theta_ref
0.0,-0.7028647491948941,-0.0945707216209991,-0.17811164502311067,0.0980983042603093,-9.37010254996842,0.0,0.0
0.02004008016032064,-0.7083544157300602,-0.2744833267583091,-0.17188212236202596,0.3114761330542356,-8.617172028729005,0.0,0.0
0.04008016032064128,-0.7171516728565396,-0.4398628563239715,-0.16177244471059238,0.5054838825716792,-7.994989560664186,0.0,0.0
0.06012024048096192,-0.7290181987775072,-0.5933262960483774,-0.14806830039724306,0.6852072156674661,-7.3283375753216635,0.0,0.0
0.08016032064128256,-0.7436994807284691,-0.7340640975480968,-0.1310577512794154,0.8505274558913822,-6.623160164896146,0.0,0.0
0.1002004008016032,-0.7609268201728122,-0.8613669722171525,-0.1110311680196116,1.0013291629901901,-5.882239468041265,0.0,0.0
0.12024048096192384,-0.7804181332767277,-0.974565655195774,-0.0882827591676077,1.1374204426001957,-5.107442800285528,0.0,0.0
0.1402805611222445,-0.8018784362230894,-1.0730151473180842,-0.06311230994158104,1.2585224613013328,-4.299783823760391,0.0,0.0
0.16032064128256512,-0.8250000504544105,-1.1560807115660543,-0.035827030938240204,1.3642639501670417,-3.4597495117794916,0.0,0.0
0.18036072144288576,-0.8494626635287096,-1.2231306537149538,-0.006743286406722865,1.4541872265758669,-2.587659652482432,0.0,0.0
0.2004008016032064,-0.8749333909098499,-1.273536369057017,0.023812025251494312,1.5277655829108587,-1.6840359631551367,0.0,0.0
0.22044088176352705,-0.9010669840593469,-1.3066796574748516,0.055500646844122516,1.58443107963141,-0.7499706747784736,0.0,0.0
0.24048096192384769,-0.9275063252963404,-1.3219670618496708,0.08797287093444725,1.6236112045162368,0.21251338782857165,0.0,0.0
0.2605210420841683,-0.9538833408650993,-1.318850778437945,0.12086831705386664,1.6447723059709691,1.2001186037414262,0.0,0.0
0.280561122244489,-0.9798204510797561,-1.2968555107328432,0.15381766207284608,1.6474672509489718,2.2079520375467325,0.0,0.0
0.3006012024048096,-1.00493266085719,-1.255610488871692,0.18644535196185574,1.6313844944504827,3.2292387177330655,0.0,0.0
0.32064128256513025,-1.028830375503693,-1.1948857323251472,0.21837326662197568,1.5963957330059961,4.2550846604202945,0.0,0.0
0.3406813627254509,-1.0511230041256197,-1.1146314310963366,0.24922525693956785,1.542599515879609,5.274316850132154,0.0,0.0
0.3607214428857715,-1.071423383105692,-1.0150189490036208,0.2786324261806702,1.4703584620551178,6.273445219966721,0.0,0.0
0.3807615230460922,-1.0893530084756704,-0.8964812684989147,0.306238983062245,1.3803278440787412,7.236811651287165,0.0,0.0
0.4008016032064128,-1.1045480011725206,-0.759749634842513,0.33170844473061845,1.2734730834186727,8.147007823201319,0.0,0.0
0.42084168336673344,-1.1166656362031226,-0.6058817515300993,0.3547299061021753,1.1510730685778434,8.985632916806427,0.0,0.0
0.4408817635270541,-1.1253911488629056,-0.43627563298914485,0.37502401925319256,1.0147056575508617,9.73441369757339,0.0,0.0
0.4609218436873747,-1.1304444054508205,-0.2526628293957459,0.39234825753025543,0.866211913853143,9.999999832958327,0.0,0.0
0.48096192384769537,-1.131731337230084,-0.06434658896317355,0.40670242097299336,0.7177081721368972,9.999999999999844,0.0,0.0
0.501002004008016,-1.1292591855283407,0.12360758508715988,0.4182057094531571,0.5751644240081873,9.999999999999995,0.0,0.0
0.5210420841683366,-1.1230337941513866,0.31126956884771007,0.4269540406976959,0.4374165622269388,9.999999850653563,0.0,0.0
0.5410821643286573,-1.1130596425444494,0.49870758034685336,0.4330205988667519,0.30332790845280155,9.999999981377112,0.0,0.0
0.561122244488978,-1.0993398775157746,0.6859882514337418,0.4364562812265347,0.17178411798913817,9.999999997402643,0.0,0.0
0.5811623246492986,-1.081876339221111,0.873176914733175,0.43729002375114917,0.0416871262307241,9.999999999863023,0.0,0.0
0.6012024048096192,-1.0606695778972492,1.060338066193093,0.4355289926200569,-0.08805155655461228,9.999999999949734,0.0,0.0
0.6212424849699398,-1.0357188599353206,1.247535898096426,0.43115863539048926,-0.2185178614783823,9.99999999993249,0.0,0.0
0.6412825651302605,-1.0070221627623792,1.434834858647075,0.42414259016160494,-0.3508022614442162,9.999999999927008,0.0,0.0
0.6613226452905812,-0.9745761590865225,1.6223001837928335,0.4144224557172293,-0.4860067222187813,9.99999999994308,0.0,0.0
0.6813627254509018,-0.938376192193755,1.8099983446383747,0.4019174306541174,-0.6252512531555963,9.999999999985356,0.0,0.0
0.7014028056112224,-0.8984162453448038,1.9979973424475603,0.3865238355802395,-0.7696797536938929,9.999999999963263,0.0,0.0
0.721442885771543,-0.8546889100792594,2.1863667632772197,0.3681145403519905,-0.9204647614124507,9.999999998781481,0.0,0.0
0.7414829659318637,-0.8071853605919058,2.3751774743676775,0.34653832888140457,-1.0788105735292965,9.99999937509035,0.0,0.0
0.7615230460921844,-0.7558953447726574,2.564500790962423,0.32161924864406466,-1.245954011866996,9.999999898699723,0.0,0.0
0.781563126252505,-0.7008072053807436,2.7544069695956894,0.2931560091861457,-1.4231619728959477,9.255519748733311,0.0,0.0
0.8016032064128256,-0.6421967063111353,2.9305249534804134,0.26133591494272546,-1.5910047121710127,8.462044673975006,0.0,0.0
0.8216432865731462,-0.5803586350473023,3.0919035631916514,0.22636004326759349,-1.748793583756598,7.629896608970456,0.0,0.0
0.8416833667334669,-0.5156032214721387,3.237770678758184,0.18844129020578368,-1.8959376530904908,6.757819283909764,0.0,0.0
0.8617234468937875,-0.4482569849852372,3.3673118243450726,0.1478082842444379,-2.0316502980672895,5.8419741260530555,0.0,0.0
0.8817635270541082,-0.37866451274658836,3.4796236119324426,0.10471015555881061,-2.154906434281364,4.877125316254316,0.0,0.0
0.9018036072144289,-0.30719068705349883,3.5736912846544766,0.05942139361012941,-2.26443809743406,3.8572847762592293,0.0,0.0
0.9218436873747494,-0.2342230843363221,3.6483801358588357,0.012246291924893023,-2.3587550842618192,2.7762866476293073,0.0,0.0
0.9418837675350701,-0.16017429457323568,3.7024394881543214,-0.03647749439559691,-2.4361893160244965,1.6283789590931093,0.0,0.0
0.9619238476953907,-0.0854839079169257,3.734519332815499,-0.08637674128251101,-2.494962344345705,0.40883409737726883,0.0,0.0
0.9819639278557114,-0.010619920026407034,3.7431993945259334,-0.13704220422957597,-2.5332731473532486,-0.8854377160827456,0.0,0.0
1.002004008016032,0.06392067387249219,3.727029694944961,-0.18803021088918837,-2.54940033298062,-2.255289776456291,0.0,0.0
1.0220440881763526,0.13761229464702332,3.6845810387265567,-0.2388664125342419,-2.5418100822526766,-3.6987637803511504,0.0,0.0
1.0420841683366733,0.2099023659164811,3.614503563472889,-0.28905160459920354,-2.5092596032480814,-5.210525732863191,0.0,0.0
1.062124248496994,0.28021420381372286,3.5155918948620895,-0.33806933247451865,-2.4508863937657543,-6.781268024573084,0.0,0.0
1.0821643286573146,0.3479513389149441,3.386856755061064,-0.38539486655077415,-2.3662767038127757,-8.39699507250545,0.0,0.0
1.1022044088176353,0.4125034411465394,3.2276051115797646,-0.4305051082194593,-2.2555120834342577,-9.999992039734334,0.0,0.0
1.122244488977956,0.4732687936369187,3.0382676245189653,-0.4729090989290132,-2.1201995354776972,-9.999999999999998,0.0,0.0
1.1422845691382766,0.5302653364361581,2.8498271399619735,-0.5129600136711321,-2.0025457371059403,-10.0,0.0,0.0
1.1623246492985972,0.5835098608493113,2.6622262206576597,-0.5509941724249577,-1.9017079376912807,-9.9999999999996,0.0,0.0
1.1823647294589177,0.6330179236360071,2.475403139334784,-0.5873325511059057,-1.8169189340473977,-10.0,0.0,0.0
1.2024048096192383,0.6788038295450306,2.2892952954511774,-0.6222825490323587,-1.7474998963226533,-9.999999999999993,0.0,0.0
1.222444889779559,0.7208806523820751,2.1038411418522274,-0.6561399073602721,-1.6928679163956708,-10.0,0.0,0.0
1.2424849699398797,0.7592602749259403,1.9189811271932582,-0.6891907075657814,-1.6525400102754677,-10.0,0.0,0.0
1.2625250501002003,0.7939534331756941,1.7346579124876917,-0.7217134016206165,-1.6261347027417525,-10.0,0.0,0.0
1.282565130260521,0.8249697540504157,1.5508160437360787,-0.7539808417421526,-1.613372006076805,-9.999999999999986,0.0,0.0
1.3026052104208417,0.8523177780951686,1.3674012022376432,-0.7862622888995547,-1.6140723578701068,-10.0,0.0,0.0
1.3226452905811623,0.8760049602438497,1.1843591074340507,-0.818825386772189,-1.628154893631709,-9.999999999999998,0.0,0.0
1.342685370741483,0.8960376424717811,1.0016341113965723,-0.8519380924970925,-1.655635286245178,-8.339392288237036,0.0,0.0
1.3627254509018036,0.9130432364576826,0.8502796992950781,-0.8864848197814534,-1.7273363642180442,-9.999999999999867,0.0,0.0
1.3827655310621243,0.926401965977799,0.6679364760058202,-0.922129013739256,-1.7822096978901292,-9.999999999999998,0.0,0.0
1.4028056112224447,0.9361162698385025,0.4857151930351727,-0.9591555220499798,-1.851325415536189,-10.0,0.0,0.0
1.4228456913827654,0.9421868988119237,0.30353144867106224,-0.9978566201953097,-1.9350549072665002,-9.999999999999165,0.0,0.0
1.442885771543086,0.9446126443637571,0.12128727759167071,-1.0385336495382467,-2.033851467146843,-10.0,0.0,0.0
1.4629258517034067,0.9433899963984169,-0.06113239826701014,-1.0814985620160606,-2.148245623890703,-9.999999999999895,0.0,0.0
1.4829659318637274,0.9385127220050694,-0.24386371966737774,-1.1270753558402122,-2.278839691207584,-9.999999999999906,0.0,0.0
1.503006012024048,0.9299713580653592,-0.4270681969855058,-1.175601382805246,-2.4263013482516897,-10.0,0.0,0.0
1.5230460921843687,0.9177526127089459,-0.6109372678206658,-1.2274285029831997,-2.5913560088976855,-9.999999999999853,0.0,0.0
1.5430861723446894,0.9018386746231437,-0.7956969042901085,-1.2829240557878971,-2.7747776402348716,-9.999999999999307,0.0,0.0
1.56312625250501,0.8822064360205479,-0.981611930129787,-1.3424716058001118,-2.9773775006107366,-9.999999999999982,0.0,0.0
1.5831663326653307,0.8588266458376983,-1.168989509142479,-1.406471404051068,-3.199989912547813,-9.99999999999958,0.0,0.0
1.6032064128256511,0.8316630260808346,-1.358180987843184,-1.475340475104079,-3.4434535526505554,-9.999999999999998,0.0,0.0
1.6232464929859718,0.8006714082780673,-1.5495808901383694,-1.5495121883669647,-3.7085856631442766,-10.0,0.0,0.0
1.6432865731462925,0.765798981510122,-1.7436213383972592,-1.6294350851693047,-3.996144840117003,-9.999999999999932,0.0,0.0
1.6633266533066131,0.726983791943321,-1.9407594783400537,-1.715570592147327,-4.306775348901116,-9.999999999999854,0.0,0.0
1.6833667334669338,0.6841547001653844,-2.141454588896831,-1.8083890315085402,-4.640921968060662,-10.0,0.0,0.0
1.7034068136272544,0.6372320905875205,-2.3461304788931945,-1.9083630119430104,-4.998699021723502,-10.0,0.0,0.0
1.723446893787575,0.5861297376607807,-2.555117646336993,-2.0159568293854235,-5.379690872120646,-9.999999999999996,0.0,0.0
1.7434869739478958,0.5307583592527442,-2.7685689204018242,-2.131609935312989,-5.782655296378261,-9.999999999999998,0.0,0.0
1.7635270541082164,0.4710315010789544,-2.9863429086894873,-2.2557119364073395,-6.205100054717532,-8.194995447471037,0.0,0.0
1.783567134268537,0.40754919625270325,-3.1741152413125593,-2.387926351620299,-6.610720760647961,-2.8176336526617884,0.0,0.0
1.8036072144288577,0.3423013044642392,-3.262394589423203,-2.5260919888302245,-6.90828186049628,2.7889252679092937,0.0,0.0
1.8236472945891782,0.2774590875981847,-3.2421108433027226,-2.66715389514606,-7.053095315791764,5.888355493551888,0.0,0.0
1.8436873747494988,0.21432864017337167,-3.156522371240653,-2.808617710302909,-7.073190757842445,9.18701504514943,0.0,0.0
1.8637274549098195,0.15435097224689395,-2.9988833963238855,-2.9475356144065947,-6.94589520518429,9.999999999998666,0.0,0.0
1.8837675350701402,0.09802985632526102,-2.8160557960816464,-3.082208201528684,-6.733629356104463,9.999999999999803,0.0,0.0
1.9038076152304608,0.045540527188127435,-2.6244664568566796,-3.2114955812681685,-6.464368986974221,9.999999999999954,0.0,0.0
1.9238476953907815,-0.002971040442951753,-2.4255783815539593,-3.334424170262597,-6.146429449721432,9.999999999999998,0.0,0.0
1.9438877755511021,-0.047396149902512286,-2.2212554729780267,-3.450214308432021,-5.789506908471193,10.0,0.0,0.0
1.9639278557114228,-0.08766543804336957,-2.0134644070428642,-3.558284039400444,-5.403486548421127,9.999999999999995,0.0,0.0
1.9839679358717435,-0.12374598091751553,-1.8040271437072977,-3.6582335002506894,-4.9974730425122695,9.999999999998485,0.0,0.0
2.004008016032064,-0.15563523148714015,-1.5944625284812308,-3.7498173034078244,-4.579190157856746,9.999999999999883,0.0,0.0
2.024048096192385,-0.18335360385262164,-1.3859186182740748,-3.832912180215093,-4.154743840363429,10.0,0.0,0.0
2.0440881763527052,-0.20693709456460468,-1.1791745355991525,-3.907485260986335,-3.728654038562108,9.999999999999998,0.0,0.0
2.064128256513026,-0.22643077606250453,-0.9746840748949925,-3.9735660670035324,-3.3040403008598713,9.999999999999998,0.0,0.0
2.0841683366733466,-0.24188352017157785,-0.7726372054536661,-4.031223417442386,-2.882867521942705,9.999999999984428,0.0,0.0
2.1042084168336674,-0.25334398697892824,-0.5730233403675206,-4.080547262302192,-2.466192242990272,9.999999999908086,0.0,0.0
2.124248496993988,-0.26085773776524024,-0.3756875393156,-4.121634856477851,-2.054379708782949,9.999999922412954,0.0,0.0
2.1442885771543083,-0.2644652592755538,-0.18037607551567864,-4.154580495314614,-1.6472819418382008,7.1750388367883975,0.0,0.0
2.164328657314629,-0.26524793101375316,-0.039133586909966905,-4.180299049310134,-1.285927699775986,5.872904083112777,0.0,0.0
2.1843687374749496,-0.2637116441555145,0.07681434291193348,-4.199190053589347,-0.9445502139606432,4.100370223719345,0.0,0.0
2.2044088176352705,-0.2605288926091771,0.1591375773168712,-4.211749947080989,-0.6279946745821188,3.09791689368547,0.0,0.0
2.224448897795591,-0.25608100166971465,0.2223945469731232,-4.218244374267334,-0.32472135931723506,2.181130358738647,0.0,0.0
2.244488977955912,-0.2507126482672403,0.2684176701237167,-4.218911006740272,-0.03333162364688347,1.6047456566224114,0.0,0.0
2.2645290581162323,-0.2446385121379586,0.30370680646408715,-4.213901240441163,0.25048831495543866,1.2474133442562314,0.0,0.0
2.284569138276553,-0.23798863990615463,0.3324936115901984,-4.203317627843617,0.5291806298773011,1.1127711633822701,0.0,0.0
2.3046092184368736,-0.23080740625466306,0.3590616825745782,-4.187214612030808,0.8051507906404598,1.138419482703085,0.0,0.0
2.3246492985971945,-0.2230767226548817,0.3865341799890677,-4.165614229720607,1.0800191155100662,1.33591897551452,0.0,0.0
2.344689378757515,-0.21471182180447435,0.4182450425203686,-4.138499935486334,1.355714711713643,1.6884030340032266,0.0,0.0
2.3647294589178354,-0.20556745719145922,0.4572182306507565,-4.105816362974297,1.6341786256018798,2.1693231348378017,0.0,0.0
2.3847695390781563,-0.19544765373078896,0.505990173033513,-4.067471201462836,1.9172580755730548,2.7352851456565115,0.0,0.0
2.4048096192384767,-0.18412177752485237,0.5662938102968297,-4.023343142283823,2.2064029589506537,3.418571255046327,0.0,0.0
2.4248496993987976,-0.17131252538233444,0.6404626071258968,-3.9732656078959296,2.5038767193946376,4.176854709094557,0.0,0.0
2.444889779559118,-0.1567117967414041,0.7300364320465176,-3.9170360332886967,2.811478730361652,5.011528137396926,0.0,0.0
2.464929859719439,-0.13998052978932596,0.8365633476039072,-3.854412102104596,3.1311965592050317,5.931414886720155,0.0,0.0
2.4849699398797593,-0.12074603864569192,0.9617245571817017,-3.785106394613686,3.4652853745454992,6.85462005310715,0.0,0.0
2.50501002004008,-0.09863427288642634,1.105588287963279,-3.70882429112182,3.8141051745933114,7.836308277556349,0.0,0.0
2.5250501002004007,-0.07325123347157703,1.269151970742466,-3.6252489787193074,4.178765620125615,8.832843298417448,0.0,0.0
2.5450901803607215,-0.044202905059897185,1.4524164205839918,-3.5340767776110806,4.5586100554113465,9.88479521269482,0.0,0.0
2.565130260521042,-0.01108443016905223,1.6559237445422477,-3.435019504252053,4.952863667951385,9.999999999999988,0.0,0.0
2.5851703406813624,0.026129053486724466,1.860674182788835,-3.328386296267423,5.331660399231486,9.99999999737375,0.0,0.0
2.6052104208416833,0.06738989810601079,2.0630422309643164,-3.2147000918072908,5.684310223006624,9.999999999885464,0.0,0.0
2.6252505010020037,0.11261838487131416,2.2614243382651686,-3.0946528081889175,6.0023641809186525,9.999999999999996,0.0,0.0
2.6452905811623246,0.16170209196021768,2.454185354445175,-2.9691084043584928,6.277220191521237,9.999999999999996,0.0,0.0
2.665330661322645,0.2144996430656464,2.6398775552714353,-2.839087880197126,6.501026208068328,9.999999999999998,0.0,0.0
2.685370741482966,0.2708492258541099,2.817479139423176,-2.7057350439680157,6.667641811455509,9.99999999997828,0.0,0.0
2.7054108216432864,0.33058107063119,2.986592238854004,-2.570266922289966,6.773406083902493,9.999999999999991,0.0,0.0
2.7254509018036073,0.39353191176075364,3.1475420564781813,-2.4339172917401877,6.817481527488905,9.999999999992895,0.0,0.0
2.7454909819639277,0.4595588565424859,3.3013472390866125,-2.2978836880785765,6.801680183080552,7.900278518450774,0.0,0.0
2.7655310621242486,0.5277631034162915,3.4102123436902834,-2.1640708570915157,6.690641549353046,4.6099073857915425,0.0,0.0
2.785571142284569,0.596864147109041,3.455052184637475,-2.034378573102022,6.484614199474675,-0.1576423111345493,0.0,0.0
2.8056112224448895,0.6651054651512495,3.412065902110421,-1.9105186937158876,6.192993969306731,-5.790155135570671,0.0,0.0
2.8256513026052104,0.7304781724622217,3.2686353655486093,-1.7936322382481356,5.8443227733875975,-10.0,0.0,0.0
2.845691382765531,0.7915369247434966,3.052937614063742,-1.683905974732546,5.486313175779473,-9.999999999999964,0.0,0.0
2.8657314629258517,0.8483819314740417,2.84225033652726,-1.580731442179308,5.158726627661899,-10.0,0.0,0.0
2.885771543086172,0.9011040542506248,2.6361061388291502,-1.4834943495122823,4.8618546333512835,-10.0,0.0,0.0
2.905811623246493,0.9497827810673534,2.433936340836427,-1.391582712708964,4.595581840165924,-9.999999999999485,0.0,0.0
2.9258517034068134,0.9944855476672,2.2351383299923295,-1.304390845821412,4.3595933443776005,-9.99999999996088,0.0,0.0
2.9458917835671343,1.035267900718798,2.0391176525798977,-1.2213208125838555,4.153501661877826,-9.999999999999998,0.0,0.0
2.9659318637274548,1.0721741502076299,1.8453124744416005,-1.141782344115687,3.9769234234084285,-9.999999999999995,0.0,0.0
2.9859719438877756,1.1052382734604127,1.6532061626391377,-1.0651918272026715,3.829525845650773,-8.219315874987467,0.0,0.0
3.006012024048096,1.1351429564447013,1.4952341492144345,-0.9914484882374455,3.6871669482613,-3.938308875418932,0.0,0.0
3.0260521042084165,1.1634994295181764,1.4178236536737592,-0.9213519538452934,3.5048267196075997,0.0037813403171300664,0.0,0.0
3.0460921843687374,1.191806826857244,1.4153698669533759,-0.8558909540705767,3.2730499887358353,3.2100475312683057,0.0,0.0
3.066132264529058,1.22130141704693,1.4747295094843027,-0.7960341539184084,2.9928400076084145,5.5752729313094935,0.0,0.0
3.0861723446893787,1.2529110529703655,1.5804817961717748,-0.7425944752663495,2.671983932602943,7.210874015647183,0.0,0.0
3.106212424849699,1.2872905484087886,1.7189747719211539,-0.6961873689803917,2.3203553142978897,8.187595497219718,0.0,0.0
3.12625250501002,1.3248433054383992,1.8776378514805334,-0.6571986833476794,1.949434281635613,8.667893256400127,0.0,0.0
3.1462925851703405,1.3657795052243114,2.0468099892956104,-0.625815386026589,1.5691648660545165,8.670004884566174,0.0,0.0
3.1663326653306614,1.4101214594137241,2.217097709470638,-0.60201208338719,1.1901651319699518,8.276910451877573,0.0,0.0
3.186372745490982,1.4577347032783483,2.380662193231208,-0.5855783152052823,0.8216884090953896,7.604968777354619,0.0,0.0
3.2064128256513023,1.5083727872910808,2.531904200636629,-0.5761712412957023,0.47035369547899597,6.707167411183806,0.0,0.0
3.226452905811623,1.5616984515427446,2.6662832125831915,-0.5733441055561026,0.14135678697998655,5.407552648138167,0.0,0.0
3.2464929859719436,1.6172175013219867,2.7759524889621114,-0.576466791850935,-0.15613431474161743,3.8661406333326047,0.0,0.0
3.2665330661322645,1.6743410905728942,2.856179462545372,-0.5848090525453378,-0.4171130347201391,2.220519654918982,0.0,0.0
