time,x,x_dot,theta,theta_dot,u,x_ref,theta_ref
0.0,1.3399265220080356,0.019310805393577463,-0.08445470332351857,-0.09140968586115772,4.923035654839654,0.0,0.0
0.02004008016032064,1.3422569025415054,0.11651902667348858,-0.08968262835372734,-0.2613962515104389,4.279181756148525,0.0,0.0
0.04008016032064128,1.3462815869104143,0.20123421844544936,-0.09796651282997992,-0.4141942238126294,3.5961724710475744,0.0,0.0
0.06012024048096192,1.3517361653609223,0.272728922525402,-0.10895838379133979,-0.5495935480679937,2.860329229928569,0.0,0.0
0.08016032064128256,1.358336272375952,0.3300053507514823,-0.12229630005601533,-0.666895813233777,2.090580027742989,0.0,0.0
0.1002004008016032,1.3657849024180138,0.3724315021030878,-0.13761356855143916,-0.7658634247711922,1.2928756607510854,0.0,0.0
0.12024048096192384,1.3737746807195073,0.39948891507467316,-0.15454049579226695,-0.8463463620413895,0.4718008382844878,0.0,0.0
0.1402805611222445,1.3819896217423793,0.41074705114359866,-0.1727054536300813,-0.9082478918907179,-0.36774215313979275,0.0,0.0
0.16032064128256512,1.390107030140562,0.40587041990913436,-0.19173621512924052,-0.9515380749579608,-1.2201033397198304,0.0,0.0
0.18036072144288576,1.397799705345629,0.3846337602533517,-0.21126175639792563,-0.9762770634342549,-2.0786430467650474,0.0,0.0
0.2004008016032064,1.4047385337523892,0.3469414203380102,-0.23091458757126707,-0.9826415586670719,-2.9355629736151485,0.0,0.0
0.22044088176352705,1.4105955215263621,0.29284938869864446,-0.25033361951672173,-0.9709515972727331,-3.781816822513819,0.0,0.0
0.24048096192384769,1.4150472892675106,0.22258838705742423,-0.26916752443861497,-0.9416952460946626,-4.607125583802694,0.0,0.0
0.2605210420841683,1.4177790101521879,0.13658604423386794,-0.28707850019244296,-0.8955487876914008,-5.400126562748909,0.0,0.0
0.280561122244489,1.4184887242837705,0.03548570657912482,-0.30374629896929606,-0.8333899388426549,-6.1486818095381555,0.0,0.0
0.3006012024048096,1.4168919049772397,-0.07984096532653907,-0.3188723325203278,-0.7563016775515881,-6.8403563059178225,0.0,0.0
0.32064128256513025,1.4127260930433108,-0.20829059669644856,-0.33218362361164977,-0.6655645545660962,-7.463050256096525,0.0,0.0
0.3406813627254509,1.4057553621043706,-0.34853654694700886,-0.343436345024507,-0.56263607064286,-8.005729763686682,0.0,0.0
0.3607214428857715,1.3957743460447898,-0.4990508029790355,-0.3524186861235607,-0.4491170549526864,-8.459164505829127,0.0,0.0
0.3807615230460922,1.3826115615666583,-0.6581392239065729,-0.3589528219098866,-0.3267067893162952,-8.816558261105463,0.0,0.0
0.4008016032064128,1.366131802374439,-0.8239879596109588,-0.3628958337951921,-0.1971505942652756,-9.073964987410376,0.0,0.0
0.42084168336673344,1.346237463649053,-0.9947169362692991,-0.36413953636191615,-0.062185128336203016,-9.23042022611654,0.0,0.0
0.4408817635270541,1.3228687620358819,-1.1684350806585566,-0.36260928122993513,0.07651275659905038,-9.287774110612833,0.0,0.0
0.4609218436873747,1.2960029262980826,-1.343291786889971,-0.35826191466781654,0.21736832810592835,-9.250269166103875,0.0,0.0
0.48096192384769537,1.2656525262154652,-1.5175200041308718,-0.3510831403218702,0.3589387172973161,-9.12394613230078,0.0,0.0
0.501002004008016,1.2318631679101364,-1.689467915266443,-0.34108457245529483,0.49992839332876826,-8.915976373407322,0.0,0.0
0.5210420841683366,1.1947108074817019,-1.8576180214217213,-0.3283007589657827,0.6391906744756068,-8.63400926113023,0.0,0.0
0.5410821643286573,1.1542989259771061,-2.020594075229785,-0.31278641697106907,0.7757170997356821,-8.285603696644705,0.0,0.0
0.561122244488978,1.1107557746981602,-2.177157563947294,-0.2946140670298847,0.9086174970592195,-7.8777785677263354,0.0,0.0
0.5811623246492986,1.064231853608545,-2.3261960544807554,-0.2738721901937782,1.0370938418053262,-7.416697430731583,0.0,0.0
0.6012024048096192,1.0148977341983816,-2.4667059705081753,-0.2506639705741353,1.1604109809821441,-6.907479886518257,0.0,0.0
0.6212424849699398,0.9629422899483646,-2.5977722125008493,-0.2251066323347397,1.2778669119697792,-6.3541240094419384,0.0,0.0
0.6412825651302605,0.9085713552753386,-2.718546733651301,-0.197331334389202,1.3887648972768853,-5.759519581736858,0.0,0.0
0.6613226452905812,0.8520067991087472,-2.8282278083295673,-0.1674835486006853,1.492389289425835,-5.125533001721963,0.0,0.0
0.6813627254509018,0.7934859715702886,-2.9260413769229334,-0.13572381639137265,1.5879866104656322,-4.4531479203178055,0.0,0.0
0.7014028056112224,0.7332614604955205,-3.0112255537383983,-0.1022287530941999,1.6747531648586376,-3.7426494475599137,0.0,0.0
0.721442885771543,0.6716010775413912,-3.0830191477064695,-0.06719214868078988,1.751830220670501,-2.993842987345338,0.0,0.0
0.7414829659318637,0.6087879804892783,-3.1406548526056453,-0.030825998420791638,1.818307512999912,-2.2063008560153814,0.0,0.0
0.7615230460921844,0.5451208286866366,-3.183357590132087,0.006638710579091878,1.8732354499941757,-1.3796307453470975,0.0,0.0
0.781563126252505,0.4809138624169658,-3.210348313483537,0.04495162863717502,1.915645902904157,-0.5137600801796635,0.0,0.0
0.8016032064128256,0.4164967946236706,-3.2208533896647604,0.0838432455120332,1.9445808437429086,0.3907701135064713,0.0,0.0
0.8216432865731462,0.35221440504621354,-3.214119478872854,0.12302579375715554,1.9591274122561169,1.3325085116900959,0.0,0.0
0.8416833667334669,0.2884257322875215,-3.189433637934603,0.16219494076640373,1.9584573504624092,2.308800370192413,0.0,0.0
0.8617234468937875,0.22550276786625933,-3.146148221063109,0.20103230618308138,1.9418682708338832,3.315503440732184,0.0,0.0
0.8817635270541082,0.16382856659298753,-3.0837100636635904,0.2392087872586666,1.908824053779261,4.346717341725389,0.0,0.0
0.9018036072144289,0.1037946981119704,-3.001693424050856,0.2763886249520927,1.8589918846713056,5.394531112947762,0.0,0.0
0.9218436873747494,0.04579797421077033,-2.8998361950600033,0.31223410554111797,1.7922740294512627,6.448797968821028,0.0,0.0
0.9418837675350701,-0.009763603629332492,-2.778078892005141,0.34641077091976913,1.7088332689325587,7.49695842681329,0.0,0.0
0.9619238476953907,-0.06249571765134747,-2.636605701100749,0.3785930043748276,1.6091116727529235,8.52395467833007,0.0,0.0
0.9819639278557114,-0.11201344216201348,-2.4758862255333005,0.4084698592596148,1.4938427442393594,9.512315164937279,0.0,0.0
1.002004008016032,-0.15794774610597387,-2.2967151971980195,0.4357509879359617,1.364056433817342,9.99999954231972,0.0,0.0
1.0220440881763526,-0.20012311651315517,-2.108768520359065,0.4604041456463355,1.2326578855186934,9.999999998050733,0.0,0.0
1.0420841683366733,-0.23855124039133266,-1.921406193908874,0.4826357753147599,1.1115814834212177,9.999999999999996,0.0,0.0
1.062124248496994,-0.2732426077967926,-1.7345683702729975,0.5026329141118309,0.9998569398535523,9.999999999999982,0.0,0.0
1.0821643286573146,-0.30420657346360985,-1.5481982833408618,0.5205643630908282,0.8965724489498665,9.999999999999973,0.0,0.0
1.1022044088176353,-0.3314514314637128,-1.3622429000051486,0.5365818385642166,0.8008737736694184,9.999999999993337,0.0,0.0
1.122244488977956,-0.35498449484853606,-1.1766531692411635,0.5508210740938658,0.7119617764824598,9.999999999999988,0.0,0.0
1.1422845691382766,-0.3748121750413943,-0.991384009642911,0.5634028531955863,0.6290889550860228,10.0,0.0,0.0
1.1623246492985972,-0.390940057630887,-0.8063941294746346,0.5744339606395077,0.5515553721960729,10.0,0.0,0.0
1.1823647294589177,-0.4033729725266205,-0.6216457447866753,0.584008045618614,0.4787042489553131,10.0,0.0,0.0
1.2024048096192383,-0.41211505733308623,-0.43710424032328643,0.592206393697087,0.4099174039236537,10.0,0.0,0.0
1.222444889779559,-0.4171698133914291,-0.2527378029171446,0.5990986068197782,0.3446106561345575,10.0,0.0,0.0
1.2424849699398797,-0.4185401543183999,-0.06851704634854008,0.6047431921226248,0.28222926514233243,10.0,0.0,0.0
1.2625250501002003,-0.4162284471002237,0.11558536090881016,0.6091880610943801,0.22224344858776077,9.999999999998675,0.0,0.0
1.282565130260521,-0.41023654592223563,0.29959505889940463,0.6124709409940894,0.16414399498546656,9.999999999999964,0.0,0.0
1.3026052104208417,-0.4005658189657613,0.48353634782371624,0.6146197004646096,0.10743797352600831,9.999999999983812,0.0,0.0
1.3226452905811623,-0.387217168405226,0.6674325280267642,0.615652591099585,0.051644531748774175,9.999999999999995,0.0,0.0
1.342685370741483,-0.37019104380731954,0.8513062298953228,0.6155784063911616,-0.0037092354211755232,10.0,0.0,0.0
1.3627254509018036,-0.34948744908218204,1.0351797362568749,0.614396559060617,-0.059092366527227914,9.999999999998629,0.0,0.0
1.3827655310621243,-0.3251059430721555,1.2190753005013266,0.6120970772925054,-0.11497408840557832,10.0,0.0,0.0
1.4028056112224447,-0.2970456337936197,1.403015463926792,0.608660519886262,-0.17182787031216834,9.999999999998218,0.0,0.0
1.4228456913827654,-0.26530516627697626,1.5870233758321715,0.60405780983418,-0.23013550260409804,10.0,0.0,0.0
1.442885771543086,-0.22988270388451065,1.7711231196232797,0.5982499853584958,-0.29039122378421045,9.99999999999999,0.0,0.0
1.4629258517034067,-0.19077590293184388,1.9553400476333391,0.591187867023916,-0.3531059167289899,10.0,0.0,0.0
1.4829659318637274,-0.14798188040387156,2.139701126398615,0.5828116392241112,-0.41881138999024264,10.0,0.0,0.0
1.503006012024048,-0.10149717455137901,2.3242352926246275,0.573050344173445,-0.4880647525333054,10.0,0.0,0.0
1.5230460921843687,-0.051317698195064994,2.5089738178157006,0.5618212865896035,-0.5614528791920785,10.0,0.0,0.0
1.5430861723446894,0.0025613153290665464,2.693950676206577,0.5490293476273881,-0.6395969481107724,10.0,0.0,0.0
1.56312625250501,0.0601453734450084,2.8792029057970927,0.5345662074553085,-0.7231570086039801,10.0,0.0,0.0
1.5831663326653307,0.12144079235211758,3.064770945355459,0.5183094773432422,-0.8128365056033122,10.0,0.0,0.0
1.6032064128256511,0.18645477076057096,3.250698920422669,0.5001217445097186,-0.9093866416761773,9.999999999975726,0.0,0.0
1.6232464929859718,0.25519546751179123,3.437034837561014,0.4798495366122224,-1.0136103948748074,9.999999999991946,0.0,0.0
1.6432865731462925,0.3276720800513562,3.6238306269782488,0.4573222181239815,-1.1263659244120445,9.99999999999761,0.0,0.0
1.6633266533066131,0.40389491900120816,3.8111419474925987,0.43235083854802775,-1.2485689787976861,9.999999999988635,0.0,0.0
1.6833667334669338,0.48387547165239175,3.999027632559181,0.4047269632769822,-1.3811937635522755,10.0,0.0,0.0
1.7034068136272544,0.5676264438409029,4.187548609425557,0.374221532923655,-1.5252715176663607,9.99999999999999,0.0,0.0
1.723446893787575,0.6551617651061616,4.376766063262935,0.34058381733190574,-1.6818857795874633,9.999999999999998,0.0,0.0
1.7434869739478958,0.7464965359643148,4.566738542907656,0.30354055757842735,-1.8521629876739178,9.999999999995921,0.0,0.0
1.7635270541082164,0.8416468882706887,4.7575176153186955,0.26279542441180404,-2.0372566583311644,10.0,0.0,0.0
1.783567134268537,0.940629719814144,4.949141577172768,0.21802896566063645,-2.2383229375583795,10.0,0.0,0.0
1.8036072144288577,1.0434622525649988,5.1416266375427435,0.16889926800135605,-2.4564848829640207,9.999999999999998,0.0,0.0
1.8236472945891782,1.150161351017955,5.334954922647803,0.11504361767458193,-2.692782516338706,9.999999999996142,0.0,0.0
1.8436873747494988,1.2607425244353214,5.529058670868327,0.056081503809648506,-2.948105693246671,9.99999999997117,0.0,0.0
1.8637274549098195,1.3752185276639488,5.723800161431367,-0.008380645919729188,-3.2231074864688845,7.863022678152353,0.0,0.0
1.8837675350701402,1.4927635749763093,5.877252365618022,-0.07749257162058269,-3.455596285042675,3.652087436500069,0.0,0.0
1.9038076152304608,1.6117372226604632,5.94868238420769,-0.14919454856615194,-3.5850988472784624,-0.015489249284125872,0.0,0.0
1.9238476953907815,1.7307096848633594,5.948623110144817,-0.2217682352860536,-3.628684335995084,-3.264022561195246,0.0,0.0
1.9438877755511021,1.8484179069045195,5.8854111020580016,-0.29378568598874333,-3.600872535134486,-6.156859178856818,0.0,0.0
1.9639278557114228,1.9637443535438515,5.766322331966597,-0.36408733588368514,-3.51508249474709,-8.74953616478673,0.0,0.0
1.9839679358717435,2.075697315303185,5.597648087966666,-0.4317559543566412,-3.3834309236478046,-10.0,0.0,0.0
2.004008016032064,2.1838126289762387,5.40576568365269,-0.4966586689686495,-3.245135730600416,-10.0,0.0,0.0
2.024048096192385,2.2881112192705264,5.2149295147143855,-0.5593311641599955,-3.1336247595673,-10.0,0.0,0.0
2.0440881763527052,2.3886129721671385,5.025087644830597,-0.6202974107088466,-3.048312327442553,-10.0,0.0,0.0
2.064128256513026,2.485336012149308,4.836151999108473,-0.6800701731967322,-2.988638124394281,-10.0,0.0,0.0
2.0841683366733466,2.5782961574395773,4.648007264513465,-0.7391523537914086,-2.9541090297338193,-10.0,0.0,0.0
2.1042084168336674,2.6675064778094617,4.460516018494219,-0.7980388824443488,-2.944326432647011,-9.999999999998748,0.0,0.0
2.124248496993988,2.7529768950962317,4.273520864338487,-0.8572189314835847,-2.959002451961795,-10.0,0.0,0.0
2.1442885771543083,2.8347137796100843,4.08684422569264,-0.9171782872866299,-2.997967790152255,-9.999999999999847,0.0,0.0
2.164328657314629,2.9127195063388642,3.900286336438996,-0.9784017535459796,-3.061173312967484,-10.0,0.0,0.0
2.1843687374749496,2.9869919439562773,3.7136218808706496,-1.041375491125908,-3.148686878996428,-9.99999999999982,0.0,0.0
2.2044088176352705,3.057523858100019,3.5265957071870844,-1.1065892202520298,-3.260686456306082,-9.999999999999998,0.0,0.0
2.224448897795591,3.1243022194038765,3.33891806519288,-1.174538222646181,-3.3974501197075595,-10.0,0.0,0.0
2.244488977955912,3.1873074177594076,3.1502599177765642,-1.2457250836892366,-3.559343052152785,-10.0,0.0,0.0
2.2645290581162323,3.246512398961494,2.9602490601043225,-1.3206611050701165,-3.7468010690439866,-9.999999999999998,0.0,0.0
2.284569138276553,3.3018817603931634,2.768468071583472,-1.3998672908080563,-3.960309286896996,-9.999999999999998,0.0,0.0
2.3046092184368736,3.353370871453176,2.5744555530006275,-1.4838747537047559,-4.200373144834974,-10.0,0.0,0.0
2.3246492985971945,3.400925125525827,2.3777127036325627,-1.5732242888758767,-4.4674767585560495,-9.999999999999844,0.0,0.0
2.344689378757515,3.444479487839611,2.1777181156892182,-1.668464692287022,-4.762020170557263,-9.999999999990852,0.0,0.0
2.3647294589178354,3.4839585826995862,1.9739547429987523,-1.7701491337976922,-5.084222075533502,-9.999999999993296,0.0,0.0
2.3847695390781563,3.519277669154817,1.7659543227615377,-1.8788284906700958,-5.433967843620177,-10.0,0.0,0.0
2.4048096192384767,3.5503449876031823,1.5533659224182528,-1.995039982415211,-5.810574587255758,-10.0,0.0,0.0
2.4248496993987976,3.5770661115645046,1.3360561980661092,-2.1192887373219986,-6.212437745339377,-9.999999999999991,0.0,0.0
2.444889779559118,3.599351072584835,1.1142480510165211,-2.2520191952911066,-6.636522898455398,-10.0,0.0,0.0
2.464929859719439,3.6171250515974185,0.8886989506291764,-2.393572883469486,-7.077684408918955,-10.0,0.0,0.0
2.4849699398797593,3.6303431669286703,0.6609057665625974,-2.54412987960594,-7.527849806822697,-9.562238740362789,0.0,0.0
2.50501002004008,3.639176014607412,0.44164238393708916,-2.703427569335688,-7.964884486487393,-9.999999999999996,0.0,0.0
2.5250501002004007,3.643530261538999,0.21771234657935362,-2.87129793178796,-8.393518122613592,9.890724773582878,0.0,0.0
2.5450901803607215,3.651285600508712,0.38776694848566196,-3.035824026345709,-8.226304727887461,-9.999999999999996,0.0,0.0
2.565130260521042,3.6549725092776,0.18434543844439144,-3.207035245265869,-8.560560946007996,9.999999999999996,0.0,0.0
2.5851703406813624,3.6626726348601597,0.3850062791279756,-3.3718589893586266,-8.241187204637885,-9.971741489940133,0.0,0.0
2.6052104208416833,3.6668610462763813,0.20942057081107754,-3.5404668728466224,-8.430394174399796,10.0,0.0,0.0
2.6252505010020037,3.675543305631092,0.434112967735551,-3.700584767930304,-8.005894754184075,-6.87424261929926,0.0,0.0
2.6452905811623246,3.682373239730612,0.3414967049759755,-3.859940361735841,-7.967779690276877,7.157760712958062,0.0,0.0
2.665330661322645,3.692838441902785,0.523260108608655,-4.011325606216373,-7.56926222402662,-9.511266177412999,0.0,0.0
2.685370741482966,3.7006988376317986,0.3930197864506746,-4.160739111512059,-7.470675264784275,-3.1151484777147385,0.0,0.0
2.7054108216432864,3.7084070452584768,0.3854103813339148,-4.305267544411903,-7.226421644992215,-9.999999999961481,0.0,0.0
2.7254509018036073,3.713419074778876,0.2506014760199599,-4.446000353767103,-7.036640467760012,-9.99999999977798,0.0,0.0
2.7454909819639277,3.7157182717931985,0.11495985071611392,-4.582134663623255,-6.806715492807561,-9.999999999999998,0.0,0.0
2.7655310621242486,3.7152475732465198,-0.023534927333924593,-4.712981745370185,-6.542354087346532,-9.999999999999972,0.0,0.0
2.785571142284569,3.7119185779274777,-0.16644976595210223,-4.837949960994253,-6.248410781203389,-10.0,0.0,0.0
2.8056112224448895,3.7056211379191275,-0.31487200041750923,-4.956530845224378,-5.929044211506269,-9.999999999926477,0.0,0.0
2.8256513026052104,3.6962325778166565,-0.46942800512354704,-5.068289568432742,-5.587936160418176,-10.0,0.0,0.0
2.845691382765531,3.683625945884994,-0.6303315965831187,-5.172859334637774,-5.228488310251632,-9.999999999989736,0.0,0.0
2.8657314629258517,3.667676915474355,-0.797451520531945,-5.269938332278863,-4.853949882054429,-9.99999999995834,0.0,0.0
2.885771543086172,3.648269120403934,-0.9703897535210524,-5.359287570107555,-4.467461891434629,-9.99999999997437,0.0,0.0
2.905811623246493,3.6252978546049603,-1.1485632899486689,-5.4407281309911575,-4.072028044180109,-9.999999999999991,0.0,0.0
2.9258517034068134,3.5986722036834093,-1.3312825460775501,-5.514136871264181,-3.670437013651199,-9.999999999993845,0.0,0.0
2.9458917835671343,3.5683157957489926,-1.5178203967208377,-5.579440190370988,-3.265165955340328,-9.999999999977462,0.0,0.0
2.9659318637274548,3.534166445488754,-1.7074675130119492,-5.63660603290259,-2.8582921265800874,-9.999999999996247,0.0,0.0
2.9859719438877756,3.4961750081800242,-1.8995718654364888,-5.685634659529883,-2.4514313313645895,-10.0,0.0,0.0
3.006012024048096,3.4543037588217156,-2.093562467915441,-5.726548901594862,-2.045712103248996,-10.0,0.0,0.0
3.0260521042084165,3.408524575499195,-2.2889591661260473,-5.759384621635001,-1.6417860020069726,-9.999999999999268,0.0,0.0
3.0460921843687374,3.358817150428556,-2.485371253531947,-5.784181996777086,-1.2398687571042524,-10.0,0.0,0.0
3.066132264529058,3.3051673916052504,-2.682487941165288,-5.80097808690624,-0.8398045064577191,-10.0,0.0,0.0
3.0861723446893787,3.2475661234851665,-2.8800634060041888,-5.809800994652289,-0.44114538730240305,-10.0,0.0,0.0
3.106212424849699,3.1860081523771346,-3.0778985554016023,-5.810665798777265,-0.043240206248810975,-9.99999999999987,0.0,0.0
3.12625250501002,3.120491732329062,-3.275821002403629,-5.803572356253603,0.3546721261831153,-10.0,0.0,0.0
3.1462925851703405,3.051018448058339,-3.4736642135361735,-5.788505016591198,0.7533669831202181,-10.0,0.0,0.0
3.1663326653306614,2.9775935187750227,-3.671246464165821,-5.765434261446795,1.1535377572201817,-10.0,0.0,0.0
3.186372745490982,2.9002265155027573,-3.8683501636132602,-5.73432025560453,1.55570029211323,-10.0,0.0,0.0
3.2064128256513023,2.818932469415724,-4.06470230435167,-5.69511825352012,1.9601001042204926,-9.99999999999998,0.0,0.0
3.226452905811623,2.7337333248737403,-4.259957227099177,-5.647785732489309,2.3666260515405653,-10.0,0.0,0.0
3.2464929859719436,2.6446596545728043,-4.453683515046807,-5.592291009151234,2.774736166903746,-9.99999999999998,0.0,0.0
3.2665330661322645,2.5517525043092126,-4.645357513179584,-5.5286229423339535,3.1834033408640146,-9.99999999998796,0.0,0.0
3.286573146292585,2.455065174049027,-4.834366513009283,-5.456801152230875,3.5910895051539584,-9.999999999901792,0.0,0.0
3.306613226452906,2.3546646783983283,-5.02002478253494,-5.376886036152441,3.995755803921705,-9.999999999972292,0.0,0.0
3.3266533066132262,2.250632576768655,-5.2016050814836605,-5.288987797498964,4.394911932673844,-8.756986756963432,0.0,0.0
