time,x,x_dot,theta,theta_dot,u,x_ref,theta_ref
0.0,0.9045041998541601,-0.09661943710427137,0.1923204271077103,0.04492084242476008,9.999999455215512,0.0,0.0
0.02004008016032064,0.9064100488384643,0.09529244921521163,0.18869434737255214,-0.18130398675790804,9.999999994939417,0.0,0.0
0.04008016032064128,0.9121555880723553,0.2872769616945505,0.1805167590900214,-0.4088794141265367,9.4231792324309,0.0,0.0
0.06012024048096192,0.9215197280851336,0.4682070006389145,0.1680578263972144,-0.6229466346403504,8.6901915615196,0.0,0.0
0.08016032064128256,0.9342221745510517,0.6351223232959076,0.15164798597527782,-0.8204920210968283,7.915787612604053,0.0,0.0
0.1002004008016032,0.94996766937878,0.787274741386414,0.1316164983927696,-1.0015743791254115,7.103907722721876,0.0,0.0
0.12024048096192384,0.9684471277660662,0.9239729193643124,0.10829326426941743,-1.1661617061676082,6.256537264355899,0.0,0.0
0.1402805611222445,0.9893380593580122,1.0445465795972984,0.08201137958636896,-1.3140942341524233,5.373986058371443,0.0,0.0
0.16032064128256512,1.012304399862271,1.1483170252129333,0.053110168467695146,-1.4450605559336909,4.455525567656786,0.0,0.0
0.18036072144288576,1.036996015227398,1.2345807682563597,0.021938254238592077,-1.5585957114551534,3.499899737458417,0.0,0.0
0.2004008016032064,1.0630480882663604,1.3026036519481186,-0.011143675095827737,-1.6540964667209905,2.5058291530178756,0.0,0.0
0.22044088176352705,1.0900805913081866,1.3516251520913114,-0.045760722126890946,-1.7308523515531604,1.4725138056264753,0.0,0.0
0.24048096192384769,1.1176980426153988,1.3808725653606118,-0.08152253670368675,-1.7880907288397905,0.4001287391440487,0.0,0.0
0.2605210420841683,1.1454897341035708,1.389584574408595,-0.11802320349541932,-1.8250333395866283,-0.7096933507288856,0.0,0.0
0.280561122244489,1.173030603369721,1.3770434633075201,-0.1548424216228163,-1.8409609063698498,-1.8533969561865606,0.0,0.0
0.3006012024048096,1.1998829056067526,1.3426151118515706,-0.1915480568990786,-1.8352817638131151,-3.025059228906481,0.0,0.0
0.32064128256513025,1.2255988226147552,1.285795850400131,-0.2277000636300399,-1.807600336548064,-4.215971404564875,0.0,0.0
0.3406813627254509,1.249724127905973,1.2062652645608871,-0.2628556972626046,-1.7577816816282354,-5.4142622362254755,0.0,0.0
0.3607214428857715,1.2718030066173467,1.103943935568689,-0.29657587909364036,-1.6860090915517878,-6.604606328429384,0.0,0.0
0.3807615230460922,1.2913840977445332,0.9790545563593297,-0.3284325280188168,-1.5928324462588221,-7.768106985156626,0.0,0.0
0.4008016032064128,1.3080277668602376,0.8321834557852144,-0.35801662725179956,-1.4792049616491398,-8.882504024545705,0.0,0.0
0.42084168336673344,1.3213145064681449,0.664336980395359,-0.384946720608205,-1.346504667820272,-9.922906824755298,0.0,0.0
0.4408817635270541,1.3308541783696701,0.4769835950762653,-0.40887740878927964,-1.1965344090537327,-9.99999999985039,0.0,0.0
0.4609218436873747,1.3366285707136705,0.2887196172000185,-0.4299652928623605,-1.0543942036540446,-9.999999999999995,0.0,0.0
0.48096192384769537,1.3386479749123188,0.1009702099324174,-0.44838604379885566,-0.9210375468247585,-9.99999999957188,0.0,0.0
0.501002004008016,1.3369213972244276,-0.08632888439455755,-0.4642938881995311,-0.7953922200337727,-9.999999999999995,0.0,0.0
0.5210420841683366,1.3314566075319971,-0.27323948462152825,-0.4778225179412958,-0.6764314870882372,-9.999999999999998,0.0,0.0
0.5410821643286573,1.3222601972762609,-0.459820512786813,-0.4890859525598982,-0.5631717309301185,-9.999999999999998,0.0,0.0
0.561122244488978,1.3093376390933442,-0.6461279091458281,-0.49817932394192027,-0.45466856910110454,-9.999999994106474,0.0,0.0
0.5811623246492986,1.292693343105737,-0.8322147993803578,-0.5051795628942912,-0.3500119476185476,-9.999999999999998,0.0,0.0
0.6012024048096192,1.2723307065166207,-1.0181318294558128,-0.5101459741736231,-0.24832056396658958,-9.99999999999959,0.0,0.0
0.6212424849699398,1.248252154373182,-1.2039276071719405,-0.5131206914607115,-0.14873586435442052,-9.999999999997632,0.0,0.0
0.6412825651302605,1.2204591701302472,-1.3896492121467419,-0.5141290070010134,-0.0504157770150962,-9.999999999999945,0.0,0.0
0.6613226452905812,1.1889523152289037,-1.5753427450671795,-0.5131795728846179,0.04747170581977152,-9.999999999996046,0.0,0.0
0.6813627254509018,1.1537312372684116,-1.7610538980245984,-0.5102644724178246,0.14575502333966786,-9.999999999999998,0.0,0.0
0.7014028056112224,1.1147946666285802,-1.9468285319915715,-0.505359161131241,0.2452655643291784,-9.999999999999192,0.0,0.0
0.721442885771543,1.0721404016369378,-2.1327132495821157,-0.49842227791608285,0.3468441607579079,-10.0,0.0,0.0
0.7414829659318637,1.0257652826293875,-2.318755950377518,-0.4893953278318543,0.4513475042114284,-9.99999999999685,0.0,0.0
0.7615230460921844,0.975665155583149,-2.5050063523119217,-0.4782022395426011,0.5596544144626606,-9.999999999999998,0.0,0.0
0.781563126252505,0.9218348264726888,-2.691516455523015,-0.4647488024081887,0.6726718567206198,-9.999999999999998,0.0,0.0
0.8016032064128256,0.8642680081933538,-2.8783409139667495,-0.4489219913373302,0.7913405535429271,-9.999999999999998,0.0,0.0
0.8216432865731462,0.8029572629148283,-3.065537263926278,-0.4305891920487832,0.9166399644273502,-9.99999999999754,0.0,0.0
0.8416833667334669,0.7378939441972945,-3.2531659358766873,-0.4095973459605653,1.0495923044108948,-9.999999999999954,0.0,0.0
0.8617234468937875,0.6690681452931045,-3.441289945209495,-0.38577204326703346,1.1912651346765917,-9.999999999999998,0.0,0.0
0.8817635270541082,0.5964686629735686,-3.629974115976799,-0.3589166057893885,1.3427718738822492,-9.999999999996598,0.0,0.0
0.9018036072144289,0.5200829902147585,-3.819283637940505,-0.32881121901035293,1.505269338951778,-9.999999999999998,0.0,0.0
0.9218436873747494,0.4398973564323897,-4.009281689118439,-0.29521219660224496,1.6799511204053987,-9.999999999999998,0.0,0.0
0.9418837675350701,0.35589684096174534,-4.200025773532218,-0.25785149204128627,1.8680352280479355,-9.999999999999998,0.0,0.0
0.9619238476953907,0.2680655943581476,-4.3915623301798865,-0.21643661164045427,2.0707440200416,-9.99999999993911,0.0,0.0
0.9819639278557114,0.17638721287697118,-4.583919074058819,-0.17065113181637154,2.2892739912041375,-9.999999999999977,0.0,0.0
1.002004008016032,0.08084532379039253,-4.777094454328933,-0.12015607919351003,2.5247526311430755,-9.99999999998683,0.0,0.0
1.0220440881763526,-0.018575548153801386,-4.971043597209696,-0.06459249058881578,2.778179430234712,-8.226643895449875,0.0,0.0
1.0420841683366733,-0.12119695326063834,-5.1310702553418475,-0.004620408788294519,2.998604090026063,-6.188483636822802,0.0,0.0
1.062124248496994,-0.2262327484670504,-5.251789760320603,0.058943806514087746,3.1782107651191134,-4.101752291839293,0.0,0.0
1.0821643286573146,-0.3328739931523774,-5.33206223426635,0.12525668480493052,3.3156439145421386,-1.9363564322565083,0.0,0.0
1.1022044088176353,-0.44027871510059147,-5.370236097410703,0.193439223348865,3.4091269271967244,1.0801003029274852,0.0,0.0
1.122244488977956,-0.5472735434904721,-5.349741419494033,0.2621484022604812,3.4354589455808076,4.208771274745111,0.0,0.0
1.1422845691382766,-0.6526460343533536,-5.2686245431440755,0.3300315689912465,3.3941583365382675,7.022615043633287,0.0,0.0
1.1623246492985972,-0.7553139219389264,-5.133394379278645,0.39598352901067135,3.297598000971241,9.582230680752943,0.0,0.0
1.1823647294589177,-0.8543027650243712,-4.949442154272236,0.45911373443447817,3.1565102711903417,9.999999999999982,0.0,0.0
1.2024048096192383,-0.9494719186392802,-4.7584576807454475,0.5197150489761267,3.0300657270824303,10.0,0.0,0.0
1.222444889779559,-1.040841920187544,-4.568500077413191,0.578291557864648,2.9288254444260646,9.999999999999975,0.0,0.0
1.2424849699398797,-1.1284319549888693,-4.379501740066261,0.6353349950034646,2.8521718569408288,10.0,0.0,0.0
1.2625250501002003,-1.2122593434474258,-4.191369422927822,0.6913258810469646,2.7995443021749993,9.999999999999991,0.0,0.0
1.282565130260521,-1.2923391536597126,-4.003990510614345,0.7467352695462947,2.770469424966504,10.0,0.0,0.0
1.3026052104208417,-1.3686838790942815,-3.8172362717284396,0.8020268743188923,2.7645802386298834,10.0,0.0,0.0
1.3226452905811623,-1.4413031338252997,-3.6309627365509187,0.8576594070602718,2.7816266370689755,9.999999999999998,0.0,0.0
1.342685370741483,-1.5102033280480336,-3.4450097111366977,0.914088997456421,2.8214795198074616,9.999999999999932,0.0,0.0
1.3627254509018036,-1.5753872947002616,-3.2591983326113967,0.9717716001009978,2.884130132228842,10.0,0.0,0.0
1.3827655310621243,-1.6368538446793515,-3.073327498954487,1.031165315267353,2.9696857583177536,9.999999999999998,0.0,0.0
1.4028056112224447,-1.6945972342533195,-2.8871694786984072,1.0927325657029823,3.078362521781464,9.999999999999835,0.0,0.0
1.4228456913827654,-1.748606534818326,-2.700465028250323,1.156942080088836,3.2104757192926776,10.0,0.0,0.0
1.442885771543086,-1.7988649033213557,-2.5129184251514842,1.2242706355053106,3.3664277708237327,9.99999999999998,0.0,0.0
1.4629258517034067,-1.8453487628511447,-2.3241929764894422,1.295204504374148,3.546693443441877,10.0,0.0,0.0
1.4829659318637274,-1.888026918857896,-2.133907800337564,1.3702405316678568,3.7518013646854347,10.0,0.0,0.0
1.503006012024048,-1.9268596594416638,-1.9416370291883922,1.4498867279510694,3.9823098141606286,9.999999999999986,0.0,0.0
1.5230460921843687,-1.9617979210640635,-1.746913081119987,1.534662190405964,4.238773122744734,10.0,0.0,0.0
1.5430861723446894,-1.9927826476276167,-1.5492363281776578,1.6250960383665076,4.521692398027181,9.999999999999599,0.0,0.0
1.56312625250501,-2.019744535719308,-1.3480944045845598,1.7217248456009204,4.831440361720644,9.999999999994428,0.0,0.0
1.5831663326653307,-2.042604446909971,-1.1429955595331618,1.8250877358253543,5.1681445112217,10.0,0.0,0.0
1.6032064128256511,-2.0612748829913654,-0.9335218040697223,1.9357178482210007,5.5315056197823225,9.999999999999975,0.0,0.0
1.6232464929859718,-2.075663059655832,-0.719408833223315,2.0541282636607523,5.920520771987577,10.0,0.0,0.0
1.6432865731462925,-2.0856762599343206,-0.5006600139244269,2.180789763710339,6.333075002479336,6.549941229479417,0.0,0.0
1.6633266533066131,-2.0925135086257267,-0.3418624345703051,2.3149951746193778,6.710270545451947,10.0,0.0,0.0
1.6833667334669338,-2.0948379479973815,-0.11622196858274689,2.4581058772498414,7.155535131523175,-2.0908525415976644,0.0,0.0
1.7034068136272544,-2.097205798614368,-0.11839253084933536,2.604877024536036,7.338557364309726,9.999999999999247,0.0,0.0
1.723446893787575,-2.095093800759688,0.10559989273400001,2.760424149413807,7.7773562438885655,-9.312177527076337,0.0,0.0
1.7434869739478958,-2.096046630804985,-0.04764150226483817,2.913892664498865,7.673425754252896,10.0,0.0,0.0
1.7635270541082164,-2.0927905091172834,0.16280608438508437,3.0748343117332193,8.047082361717717,-9.676748078072642,0.0,0.0
1.783567134268537,-2.093205949278923,-0.02077200808196747,3.2306763186785705,7.792100347267566,9.999999999999844,0.0,0.0
1.8036072144288577,-2.089852104763914,0.16769222575043716,3.391623522819499,8.047360207046424,-9.999999999999996,0.0,0.0
1.8236472945891782,-2.0907627935147794,-0.04553443754326425,3.5449227058008415,7.664959149067118,7.788503623985221,0.0,0.0
1.8436873747494988,-2.0892152788384375,0.07737573381709145,3.6993048422673827,7.719106823327057,-10.0,0.0,0.0
1.8637274549098195,-2.0922207741333225,-0.15027476474425386,3.844785946858366,7.274055229549167,-1.8361360929277506,0.0,0.0
1.8837675350701402,-2.0967064979674017,-0.22428619170396513,3.9847745069540568,6.999428004784551,-9.999999999999293,0.0,0.0
1.9038076152304608,-2.105764242235431,-0.4528872134014736,4.115816483212246,6.552098812909443,-0.7758774575810907,0.0,0.0
1.9238476953907815,-2.1158971068166377,-0.5066432290603389,4.2410917186172465,6.263761770250049,-7.141834647615046,0.0,0.0
1.9438877755511021,-2.129418241742966,-0.6760567463164163,4.358825077027418,5.886667920508579,3.373943802136238,0.0,0.0
1.9639278557114228,-2.1423858089634167,-0.6483783610225357,4.471332914374636,5.625391867360905,3.708924815164655,0.0,0.0
1.9839679358717435,-2.1546224883784535,-0.611833970751842,4.578395892100792,5.353148886307822,8.629073530350132,0.0,0.0
2.004008016032064,-2.164269889198945,-0.4823700410245899,4.680153754062664,5.0878930980935895,9.999999999999988,0.0,0.0
2.024048096192385,-2.1707597291042244,-0.3244919952639669,4.776190896788485,4.8018571362910585,9.999999999999998,0.0,0.0
2.0440881763527052,-2.1740136937087033,-0.16269823022394736,4.866054389291448,4.493174625148135,9.999999999999842,0.0,0.0
2.064128256513026,-2.1739483345708206,0.0032679568941428316,4.94934918275951,4.164739673403121,9.999999999999998,0.0,0.0
2.0841683366733466,-2.1704794331788664,0.17344506959770517,5.025734138773544,3.81924780070165,9.999999999699497,0.0,0.0
2.1042084168336674,-2.1635255797905777,0.34769266941443167,5.0949185892376585,3.4592225232057445,9.999999999999998,0.0,0.0
2.124248496993988,-2.153010903617111,0.525733808673327,5.156658964623684,3.087018769301295,9.999999999999702,0.0,0.0
2.1442885771543083,-2.1388669714922055,0.7071966062452748,5.210755145568048,2.7048090472181716,9.999999999986601,0.0,0.0
2.164328657314629,-2.121033937113678,0.8916517189263686,5.257046383286138,2.314561885904505,9.999999999948898,0.0,0.0
2.1843687374749496,-2.099461069751867,1.078643368090543,5.295406833248719,1.9180224981290674,10.0,0.0,0.0
2.2044088176352705,-2.0741068182687985,1.2677125741534385,5.325740908882451,1.5167037816866151,10.0,0.0,0.0
2.224448897795591,-2.044938573800313,1.4584122234242567,5.347978764075672,1.1118927596610706,10.0,0.0,0.0
2.244488977955912,-2.0119322852499923,1.650314427516046,5.362072250706047,0.7046743315187658,9.9999999999643,0.0,0.0
2.2645290581162323,-1.9750720600512157,1.8430112599388342,5.36799167923074,0.2959714262346359,10.0,0.0,0.0
2.284569138276553,-1.9343498529508671,2.0361103550174304,5.365723651545678,-0.1134013842531203,10.0,0.0,0.0
2.3046092184368736,-1.8897653115493076,2.2292270700779806,5.355270150787745,-0.5226750378966502,9.999999999917948,0.0,0.0
2.3246492985971945,-1.8413258113917716,2.4219750078768025,5.336648974179093,-0.9310588304325706,9.999999999872479,0.0,0.0
2.344689378757515,-1.7890466767298108,2.6139567330980493,5.309895490284159,-1.3376741947466866,9.999999999999998,0.0,0.0
2.3647294589178354,-1.7329515461721396,2.8047565278835522,5.275065596973354,-1.7414946655402364,9.999999999999998,0.0,0.0
2.3847695390781563,-1.673072805954853,2.993937010864337,5.232239657446565,-2.1412969763394814,9.999999999999996,0.0,0.0
2.4048096192384767,-1.6094519790090431,3.1810413472904875,5.181527108616891,-2.5356274414837054,9.999999999999996,0.0,0.0
2.4248496993987976,-1.5421399283254553,3.3656025341793874,5.123071383167291,-2.92278627247996,9.999999999999936,0.0,0.0
2.444889779559118,-1.4711967126522993,3.547160783657803,5.057054780841598,-3.300830116284643,7.610375990590844,0.0,0.0
2.464929859719439,-1.397566693250047,3.6815009701126113,4.984146563298603,-3.6454108771497533,4.65395819304752,0.0,0.0
2.4849699398797593,-1.3224004680278556,3.758311261109569,4.904959528544556,-3.959351737702361,1.8148110068501522,0.0,0.0
2.50501002004008,-1.2468028184161597,3.779882480584792,4.8198810140511075,-4.253925724672437,-0.7539721224373719,0.0,0.0
2.5250501002004007,-1.1717784160791247,3.7512201168517456,4.729052282465886,-4.541436579261095,-2.9732806703930814,0.0,0.0
2.5450901803607215,-1.0982057256434568,3.6786345217833967,4.632384300521959,-4.833399097196321,-4.794751059221031,0.0,0.0
2.565130260521042,-1.026822212816427,3.56917564135149,4.529596515114881,-5.139389270353902,-6.201433138585435,0.0,0.0
2.5851703406813624,-0.9582200146300037,3.4301099093211667,4.420272410858206,-5.466205212833743,-7.20344958676669,0.0,0.0
2.6052104208416833,-0.8928494240480205,3.268529529099165,4.303925836637628,-5.8173287110288925,-7.833334679857241,0.0,0.0
2.6252505010020037,-0.8310275113304587,3.091095635878088,4.18007338845694,-6.192622409034433,-8.141030536587076,0.0,0.0
2.6452905811623246,-0.772949259508614,2.903912591092231,4.048309446439268,-6.588197100883553,-8.188974856516623,0.0,0.0
2.665330661322645,-0.7186990000027331,2.712512975294045,3.908381212801981,-6.996411681864386,-8.046756265094345,0.0,0.0
2.685370741482966,-0.668260493842295,2.5219253080219075,3.760260892878988,-7.406015996149643,-7.7848000574109895,0.0,0.0
2.7054108216432864,-0.6215248259331863,2.3367833954554356,3.60421063443747,-7.8025129220759055,-7.467315973590066,0.0,0.0
2.7254509018036073,-0.5782966144661424,2.161410573352188,3.4408325896576426,-8.168902238991365,-7.144890285765544,0.0,0.0
2.7454909819639277,-0.5383005546220154,1.999802992206353,3.271092356280216,-8.487011668871343,-6.848699476243794,0.0,0.0
2.7655310621242486,-0.5011917098204153,1.8554422400800066,3.096301388910189,-8.739548368501344,-6.588692256223314,0.0,0.0
2.785571142284569,-0.46657313378143794,1.7309288019488664,2.9180472350445052,-8.912707693284174,-6.356395999932625,0.0,0.0
2.8056112224448895,-0.43402200056816786,1.6275566606635052,2.7380736826368652,-8.998677620382,-6.130738848430007,0.0,0.0
2.8256513026052104,-0.40312075122312463,1.5450624672521616,2.5581328735546958,-8.99704045410847,-5.883368049103642,0.0,0.0
2.845691382765531,-0.37348536302071395,1.481769410120533,2.3798457502700114,-8.914356164234224,-5.579953242159259,0.0,0.0
2.8657314629258517,-0.3447816856898391,1.4351838665437442,2.204603698192551,-8.762102603873029,-5.176508230675599,0.0,0.0
2.885771543086172,-0.31672355498078003,1.4029065354529529,2.033523567403265,-8.554006539464302,-4.613703783257893,0.0,0.0
2.905811623246493,-0.2890512008601065,1.3836177060336772,1.8674436510158219,-8.303995819372162,-3.8190167855007973,0.0,0.0
2.9258517034068134,-0.2614945949416579,1.3778302959224311,1.706932674311039,-8.025548835239148,-2.746490376161383,0.0,0.0
2.9458917835671343,-0.23374030401097473,1.3877145465341585,1.5522838741140623,-7.732440009848825,-1.5223763791288492,0.0,0.0
2.9659318637274548,-0.20545761974589347,1.4141342132540629,1.4034957315179748,-7.439407129804374,-0.6840213531673791,0.0,0.0
2.9859719438877756,-0.1764739848310164,1.4491817457438532,1.260326894753397,-7.158441838228892,-0.9610068608144988,0.0,0.0
3.006012024048096,-0.14702741173507453,1.4723286547970929,1.1225414267651026,-6.889273399414723,-2.352068926985621,0.0,0.0
3.0260521042084165,-0.11776512824907172,1.4631141743001401,0.9901714631263964,-6.618498181935312,-4.224195914446552,0.0,0.0
3.0460921843687374,-0.08951627873984142,1.4124424754615148,0.8635481671919865,-6.331164796720495,-6.146231178048431,0.0,0.0
3.066132264529058,-0.06313404833776966,1.3191115201035877,0.7432098792762565,-6.016914395786496,-7.964031864611271,0.0,0.0
3.0861723446893787,-0.03943460999865713,1.1849719169556263,0.6298089970794507,-5.670044109840289,-9.628785520362568,0.0,0.0
3.106212424849699,-0.01917236035245922,1.0131124823098956,0.5240332074384674,-5.288789482049166,-9.999999999816154,0.0,0.0
3.12625250501002,-0.002595986765671441,0.8288186793393889,0.4259816941295925,-4.902575665443742,-9.999999999983357,0.0,0.0
3.1462925851703405,0.010211109603542667,0.6403548184607054,0.3355037964605435,-4.523894883452449,-9.999999999999998,0.0,0.0
3.1663326653306614,0.01918865959149976,0.4488774993978546,0.2523813042747165,-4.156124609291351,-9.999999999999998,0.0,0.0
3.186372745490982,0.02429644336809845,0.25538918882993455,0.17634344322506945,-3.801893052482353,-9.999999999999998,0.0,0.0
3.2064128256513023,0.025510699003359505,0.06071278176305275,0.10708259973318406,-3.46304217459427,-9.99999999999956,0.0,0.0
3.226452905811623,0.022820504129193835,-0.13450974370828347,0.04426929909374894,-3.1406650319717557,-10.0,0.0,0.0
3.2464929859719436,0.016224452351055116,-0.3298025889069359,-0.012434556129477678,-2.8351927611613306,-10.0,0.0,0.0
3.2665330661322645,0.005727797667033529,-0.5248327342010793,-0.06336468120340431,-2.546506253696332,-9.999999999997673,0.0,0.0
3.286573146292585,-0.008659874617855726,-0.7193836142444627,-0.10884573374429364,-2.2740526270444663,-10.0,0.0,0.0
