time,x,x_dot,theta,theta_dot,u,x_ref,theta_ref
0.0,0.9195939810588705,0.03868299136037606,0.17676840689383305,-0.08806958799104517,9.999999951324968,0.0,0.0
0.02004008016032064,0.9242116169405173,0.23088179408234308,0.1703677946348492,-0.32003061294919255,9.470985901392185,0.0,0.0
0.04008016032064128,0.9324698706981503,0.412912687881653,0.1595849787415578,-0.5391407946645699,8.757426660999482,0.0,0.0
0.06012024048096192,0.9440952143856706,0.5812671843760089,0.1447526175456046,-0.7416180597976608,7.99802864520094,0.0,0.0
0.08016032064128256,0.9587975494423043,0.7351167528316883,0.12620353887633634,-0.927453933463412,7.199507981736468,0.0,0.0
0.1002004008016032,0.9762724290435747,0.873743980063518,0.10427094207687124,-1.0966298399732555,6.364459322562851,0.0,0.0
0.12024048096192384,0.9962017128262782,0.9964641891351782,0.07929064243310677,-1.249014982188223,5.49373676789478,0.0,0.0
0.1402805611222445,1.018253600610556,1.1025943892138883,0.05160387230680422,-1.3843385063151272,4.587046626434609,0.0,0.0
0.16032064128256512,1.042082291237688,1.191434531356589,0.021560214965439504,-1.502182867068236,3.6434612475729065,0.0,0.0
0.18036072144288576,1.0673274784269302,1.2622593594621119,-0.01047968150996163,-1.6019948237700568,2.661919427915254,0.0,0.0
0.2004008016032064,1.0936138865056049,1.3143204039337317,-0.04414192898723844,-1.6831123738638403,1.6417254303794242,0.0,0.0
0.22044088176352705,1.1205510432056145,1.3468578350004763,-0.07903804764873085,-1.7448059330746204,0.5830419526039818,0.0,0.0
0.24048096192384769,1.1477334773527788,1.359121707358217,-0.11476467481733343,-1.7863313584301297,-0.5126292257671796,0.0,0.0
0.2605210420841683,1.1747415155580434,1.3504019102632334,-0.15090450658458804,-1.8069915883627294,-1.641983937196243,0.0,0.0
0.280561122244489,1.201142835105415,1.3200659773685803,-0.18702856743440677,-1.8062030424909363,-2.7994734811487785,0.0,0.0
0.3006012024048096,1.2264949119114545,1.267603840301984,-0.222699821490185,-1.7835627027889114,-3.9768890619347443,0.0,0.0
0.32064128256513025,1.250348483857683,1.192678597311424,-0.2574780632136537,-1.7389120861734344,-5.162987331056497,0.0,0.0
0.3406813627254509,1.2722521293122073,1.0951822727262182,-0.2909259632038287,-1.6723949995087493,-6.343194673401437,0.0,0.0
0.3607214428857715,1.2917580308685164,0.9752950778154469,-0.3226160961615266,-1.584506647884894,-7.499470056665437,0.0,0.0
0.3807615230460922,1.3084289398506477,0.8335454491065607,-0.3521387308826365,-1.4761317360554955,-8.610461418624716,0.0,0.0
0.4008016032064128,1.3218462567902993,0.6708658469825781,-0.3791100941592197,-1.348568163829162,-9.652141137448513,0.0,0.0
0.42084168336673344,1.3316189766396724,0.4886359924686527,-0.4031807073593209,-1.2035306600050588,-9.999999993252082,0.0,0.0
0.4408817635270541,1.3376241979194716,0.3002610639899612,-0.42436200295512366,-1.0590647797901387,-9.999999999989488,0.0,0.0
0.4609218436873747,1.3398722741231526,0.11240381018404963,-0.44283018374164523,-0.9234090393260782,-9.999999999999996,0.0,0.0
0.48096192384769537,1.3383722586170035,-0.07500077530745655,-0.4587396935722137,-0.7954754915284233,-9.999999999998897,0.0,0.0
0.501002004008016,1.3331319498860899,-0.2620154365456844,-0.47222410786106267,-0.6742207144424465,-9.999999999999998,0.0,0.0
0.5210420841683366,1.3241579469393159,-0.4487001473387029,-0.4833969798868602,-0.5586436012898758,-9.999999999999998,0.0,0.0
0.5410821643286573,1.3114557070234718,-0.6351119957922069,-0.49235261077462655,-0.44778154438831824,-9.999999986726094,0.0,0.0
0.561122244488978,1.2950296003190154,-0.8213053352228232,-0.49916672147181623,-0.3407055348594835,-9.999999998149825,0.0,0.0
0.5811623246492986,1.274882958045408,-1.0073321136803692,-0.5038970123663757,-0.23651454472797795,-9.999999999700002,0.0,0.0
0.6012024048096192,1.2510181117222114,-1.193242316159829,-0.506583601410776,-0.13432945222000892,-9.999999999644825,0.0,0.0
0.6212424849699398,1.223436422098989,-1.3790844811611227,-0.5072493350009588,-0.033286679509141284,-9.999999998978595,0.0,0.0
0.6412825651302605,1.1921382969205383,-1.5649062589225344,-0.5058999683327491,0.06746833341048444,-9.99999999954546,0.0,0.0
0.6613226452905812,1.1571231970865188,-1.7507549917009737,-0.5025242135981988,0.1687877367275159,-9.999999999890987,0.0,0.0
0.6813627254509018,1.1183896310856445,-1.9366783000437167,-0.49709365566584207,0.2715278966178345,-9.999999999999998,0.0,0.0
0.7014028056112224,1.075935137865446,-2.122724661009924,-0.4895625360517926,0.37655598070247265,-9.999999999943963,0.0,0.0
0.721442885771543,1.0297562586159077,-2.3089439624769175,-0.47986740732559385,0.48475643630993787,-9.999999999990068,0.0,0.0
0.7414829659318637,0.9798484983562764,-2.4953880129815666,-0.4679266618843937,0.5970372720600083,-9.999999999864418,0.0,0.0
0.7615230460921844,0.9262062787982637,-2.6821109779006385,-0.45363994160979915,0.7143360137297265,-9.999999999999998,0.0,0.0
0.781563126252505,0.8688228848057685,-2.8691696996247558,-0.4368874386980953,0.8376251455851922,-9.999999999976021,0.0,0.0
0.8016032064128256,0.8076904080001428,-3.0566238402812873,-0.41752910344329763,0.9679167627398846,-9.999999999999998,0.0,0.0
0.8216432865731462,0.7427996928146348,-3.2445357592754025,-0.3954037826013457,1.1062660420975972,-9.999999999999998,0.0,0.0
0.8416833667334669,0.6741402927729002,-3.4329700020867278,-0.37032832300324053,1.2537729799052582,-9.999999999999945,0.0,0.0
0.8617234468937875,0.601700448180311,-3.621992229629463,-0.3420966903275073,1.4115816337866631,-9.999999999999998,0.0,0.0
0.8817635270541082,0.525467101044605,-3.8116673567853,-0.31047917359143634,1.5808758368035472,-9.999999999986027,0.0,0.0
0.9018036072144289,0.44542596917438193,-4.002056593511155,-0.2752217732878807,1.76287001517778,-9.999999999995264,0.0,0.0
0.9218436873747494,0.36156170930715836,-4.193212993361177,-0.23604590641675308,1.958793343556382,-9.999999999999996,0.0,0.0
0.9418837675350701,0.27385820894114266,-4.385175018300786,-0.19264860570391046,2.169865035642131,-9.999999999998225,0.0,0.0
0.9619238476953907,0.1822990581428658,-4.577957539913844,-0.14470344263881368,2.397258153254838,-9.999999994120113,0.0,0.0
0.9819639278557114,0.08686826525790166,-4.7715396442482065,-0.09186246178695966,2.6420490425927015,-8.674541394636934,0.0,0.0
1.002004008016032,-0.011931797149700107,-4.940003120380088,-0.03453108427756084,2.866568875469941,-6.735760060485545,0.0,0.0
1.0220440881763526,-0.11335574523446894,-5.071197404238442,0.026528442927793557,3.05297636026772,-4.718127595507951,0.0,0.0
1.0420841683366733,-0.21662351145238723,-5.163388310895915,0.09050686882538875,3.198921294879759,-2.666027643254739,0.0,0.0
1.062124248496994,-0.3209387605892952,-5.2157624568453995,0.15658023294734258,3.303668206097691,-0.5469255574944678,0.0,0.0
1.0821643286573146,-0.4254779799842646,-5.22696096974847,0.22390159671513576,3.366068188389659,2.1934959083713808,0.0,0.0
1.1022044088176353,-0.5291772373716863,-5.184962869371085,0.2912999880993298,3.3699195692097006,5.208578742772556,0.0,0.0
1.122244488977956,-0.630871282406398,-5.084702251735582,0.3575067435267991,3.310337771373468,7.927286833547246,0.0,0.0
1.1422845691382766,-0.7295183198165252,-4.9323518705063565,0.4214910053443939,3.1992130908797387,10.0,0.0,0.0
1.1623246492985972,-0.8243352787853095,-4.740847948439217,0.48264036823043915,3.057468144302265,9.999999999999769,0.0,0.0
1.1823647294589177,-0.9153431587561147,-4.550393998540256,0.5414592441493069,2.94094379594339,10.0,0.0,0.0
1.2024048096192383,-1.002561994842913,-4.360941804339918,0.5984391708001078,2.848996332540044,10.0,0.0,0.0
1.222444889779559,-1.0860102694802063,-4.17241373186467,0.6540595193834907,2.781017429169148,9.999999999999977,0.0,0.0
1.2424849699398797,-1.1657044871969542,-3.9847108858373943,0.7087889493012551,2.7364714958882215,9.99999999999985,0.0,0.0
1.2625250501002003,-1.2416588455370403,-3.797717917004302,0.763087352669647,2.7149201684195923,9.999999999999336,0.0,0.0
1.282565130260521,-1.3138849491785796,-3.611305182076963,0.8174080933413373,2.716037033584515,9.99999999999974,0.0,0.0
1.3026052104208417,-1.3823915256611152,-3.425328824126787,0.872200394239192,2.7396150448927346,10.0,0.0,0.0
1.3226452905811623,-1.4471841100170155,-3.2396292177950183,0.9279117639898896,2.785568487534876,9.999999999999972,0.0,0.0
1.342685370741483,-1.50826467258564,-3.0540281284312223,0.9849903808759914,2.8539308443050926,9.9999999999997,0.0,0.0
1.3627254509018036,-1.5656311701137549,-2.8683248764057487,1.0438873708976928,2.944849501085067,10.0,0.0,0.0
1.3827655310621243,-1.6192770057769748,-2.6822917831610003,1.1050589287632784,3.058577893279281,10.0,0.0,0.0
1.4028056112224447,-1.6691903899775402,-2.4956692100282742,1.1689682366658982,3.1954653951309893,10.0,0.0,0.0
1.4228456913827654,-1.7153536018340587,-2.30816059282593,1.236087135355109,3.3559449344605388,10.0,0.0,0.0
1.442885771543086,-1.7577421625797673,-2.119428037285436,1.3068974931787465,3.540517891181877,9.999999999999677,0.0,0.0
1.4629258517034067,-1.79632394839238,-1.9290892906306336,1.3818921968725013,3.749735184687746,10.0,0.0,0.0
1.4829659318637274,-1.8310582937654274,-1.7367172686523649,1.4615756447467565,3.9841723937127624,9.99999999998259,0.0,0.0
1.503006012024048,-1.8618951703525461,-1.541843829355941,1.5464635454239715,4.244395033860744,9.999999999995406,0.0,0.0
1.5230460921843687,-1.8887745740572082,-1.3439701852331019,1.6370816938243697,4.530907420019912,9.999999999970901,0.0,0.0
1.5430861723446894,-1.9116263196076613,-1.1425872775226582,1.7339631837485299,4.844074496208004,9.999999999993854,0.0,0.0
1.56312625250501,-1.930370531841953,-0.9372106117145931,1.8376431902820112,5.184000326674066,9.99999999999396,0.0,0.0
1.5831663326653307,-1.9449192397066586,-0.7274353932352804,1.948649984047951,5.550339688296986,9.999999999999996,0.0,0.0
1.6032064128256511,-1.9551796192495916,-0.5130189771466537,2.0674902147831506,5.942011536759973,9.999999999999993,0.0,0.0
1.6232464929859718,-1.9610595748937167,-0.2939977822062517,2.194625787674818,6.356778644583369,-6.219108248390274,0.0,0.0
1.6432865731462925,-1.9685146884391325,-0.3727556772707841,2.3251515415872976,6.526287695623969,9.99999999999999,0.0,0.0
1.6633266533066131,-1.9714927541779483,-0.14890328694079452,2.4645555312966283,6.970199485466525,-3.7779675298147684,0.0,0.0
1.6833667334669338,-1.9751905926536173,-0.18489192378344502,2.606799964623545,7.11222166634584,10.0,0.0,0.0
1.7034068136272544,-1.9744419224710268,0.037433509129526005,2.7577742510863197,7.548714323138732,-6.498536053829358,0.0,0.0
1.723446893787575,-1.9756927886934095,-0.06254331111913361,2.9081696664844783,7.519770769907929,10.0,0.0,0.0
1.7434869739478958,-1.972738139448741,0.1477324622334227,3.0660576909943558,7.894401225493873,-9.999999999999996,0.0,0.0
1.7635270541082164,-1.9735708436377035,-0.04163520944812238,3.2187278688022563,7.633508890395028,5.35643174377965,0.0,0.0
1.783567134268537,-1.9724238209404141,0.05735113486446511,3.3739041352819092,7.75881332398265,-9.999999999999998,0.0,0.0
1.8036072144288577,-1.9754973370534155,-0.15367580565006567,3.5215706149055603,7.383323981182553,0.16582702520930503,0.0,0.0
1.8236472945891782,-1.9789951061075686,-0.17488845270765618,3.6664669455994847,7.244816534696213,-9.999999999999998,0.0,0.0
1.8436873747494988,-1.9869507626055365,-0.3977828248983962,3.802635541929354,6.808429816493462,1.490924402996681,0.0,0.0
1.8637274549098195,-1.9950157886862698,-0.4032513040366715,3.9350670077480294,6.621573290933789,-9.999999999980759,0.0,0.0
1.8837675350701402,-2.0075693979376297,-0.6276804625679928,4.058590553087926,6.176177266994828,2.1009453899312547,0.0,0.0
1.9038076152304608,-2.0200363201263785,-0.6233461094374348,4.177528627410722,5.946903716139775,-7.6281153380588655,0.0,0.0
1.9238476953907815,-2.0360095198873283,-0.7986599880474937,4.288731903406416,5.560163799784685,4.433002185521088,0.0,0.0
1.9438877755511021,-2.0509715778957505,-0.7481029004211076,4.395201495135759,5.323479586467159,2.186577252458466,0.0,0.0
1.9639278557114228,-2.0657057188074806,-0.7367070455864951,4.4961944549153925,5.049647988981684,7.849545067030299,0.0,0.0
1.9839679358717435,-2.078086890635912,-0.6190585914215625,4.592204528680915,4.800503688276094,9.806937412904453,0.0,0.0
2.004008016032064,-2.0873466142856474,-0.462986182486776,4.6829416837696,4.536857754434235,9.999999999999893,0.0,0.0
2.024048096192385,-2.09335171858749,-0.30025521509214115,4.7679487082431,4.2503512236750405,9.999999999998485,0.0,0.0
2.0440881763527052,-2.0960329075629436,-0.13405944877266918,4.846811774542964,3.943153314993167,9.999999999999998,0.0,0.0
2.064128256513026,-2.095318251745668,0.035732790863763686,4.919169292962438,3.6178759209737428,9.999999999999998,0.0,0.0
2.0841683366733466,-2.091136515444187,0.20908681507404692,4.98470859551919,3.2769651278375624,9.999999999999998,0.0,0.0
2.1042084168336674,-2.0834198460091784,0.3858334717504285,5.043162839849129,2.922712216496926,9.999999999981645,0.0,0.0
2.124248496993988,-2.072105805249675,0.5657020379751689,5.094307895001434,2.557252757615313,9.999999999964071,0.0,0.0
2.1442885771543083,-2.057138781202517,0.7483512023578948,5.137959070754315,2.182558787644021,9.999999999618314,0.0,0.0
2.164328657314629,-2.038470862191463,0.933395950552712,5.173967681674224,1.800430545995463,9.99999999999779,0.0,0.0
2.1843687374749496,-2.0160622833084676,1.1204289441497561,5.2022175582490835,1.412493828742985,9.999999999995508,0.0,0.0
2.2044088176352705,-1.9898815679811312,1.3090357663668124,5.2226217051532755,1.0202073452095812,9.999999999974662,0.0,0.0
2.224448897795591,-1.9599054854505509,1.4988041265290235,5.2351193499832105,0.6248822414967565,9.999999999639583,0.0,0.0
2.244488977955912,-1.9261189312665494,1.6893277092000671,5.239673624753386,0.22771373850878163,9.999999999999961,0.0,0.0
2.2645290581162323,-1.8885148153495621,1.8802057958493643,5.236270084188492,-0.17017702824468411,9.999999999996447,0.0,0.0
2.284569138276553,-1.84709401373701,2.071040080627602,5.224916199515771,-0.5676942336360447,9.99999999958509,0.0,0.0
2.3046092184368736,-1.8018654082936734,2.2614302721668267,5.205641884423138,-0.963715754631638,9.999999999999998,0.0,0.0
2.3246492985971945,-1.752846005376039,2.450970145881719,5.178501020686719,-1.3570431868209647,9.999999999999998,0.0,0.0
2.344689378757515,-1.7000610913845775,2.6392456995730837,5.143573863820066,-1.746357843332641,9.999999999254047,0.0,0.0
2.3647294589178354,-1.6435443521593716,2.8258369612603014,5.100970133644389,-2.1301865087838627,9.999999979784997,0.0,0.0
2.3847695390781563,-1.583337856670186,3.0103247744592845,5.050832541852689,-2.5068795895850378,9.999999999994369,0.0,0.0
2.4048096192384767,-1.51949178640392,3.1923035133132975,4.9933404899814215,-2.8746025935633455,8.731676092671414,0.0,0.0
2.4248496993987976,-1.4525274213453403,3.3482182529289823,4.928906405349895,-3.2217042315762914,6.019545387687968,0.0,0.0
2.444889779559118,-1.3834958972756795,3.4515762034830404,4.858067482107427,-3.5419461621234247,3.346246228322206,0.0,0.0
2.464929859719439,-1.3134333944439476,3.5031251415865987,4.781190124806516,-3.843867865045575,0.8781954138868375,0.0,0.0
2.4849699398797593,-1.2433012127547094,3.5066090844619113,4.698443161990937,-4.137348140778933,-1.314392122823583,0.0,0.0
2.50501002004008,-1.1739619265990937,3.4669643077807892,4.609803867833536,-4.431964707870069,-3.185722160269581,0.0,0.0
2.5250501002004007,-1.1061646513705916,3.3898637614251035,4.5150824225040145,-4.736072266476077,-4.712965300427757,0.0,0.0
2.5450901803607215,-1.0405381226867563,3.28132643419177,4.4139607668637515,-5.05608278201317,-5.8947342115058525,0.0,0.0
2.565130260521042,-0.977590230033317,3.1473946326719617,4.306041904786611,-5.395943103857004,-6.748053802471448,0.0,0.0
2.5851703406813624,-0.917712110013327,2.993906000999505,4.1909063355103955,-5.75677846381079,-7.30564609028211,0.0,0.0
2.6052104208416833,-0.861185096512546,2.826350675039049,4.068172963171897,-6.136668616924965,-7.6127166905287424,0.0,0.0
2.6252505010020037,-0.8081888521872694,2.649812216263833,3.937562317070702,-6.530532305059723,-7.722972039618354,0.0,0.0
2.6452905811623246,-0.7588091612028641,2.4689845492202647,3.798959988067708,-6.9301164501497015,-7.693431668273047,0.0,0.0
2.665330661322645,-0.713044184485837,2.2882488358513604,3.652477567281217,-7.324121039324568,-7.578200978181894,0.0,0.0
2.685370741482966,-0.670808728043305,2.111772822126597,3.498506539400787,-7.6985513940214965,-7.421905172022919,0.0,0.0
2.7054108216432864,-0.6319373248597724,1.9435701591766301,3.3377572948334437,-8.03746222836716,-7.253925952472739,0.0,0.0
2.7254509018036073,-0.5961883877558976,1.7874468551937412,3.171271698704549,-8.324279806444753,-7.085355829361966,0.0,0.0
2.7454909819639277,-0.5632527826135489,1.6467802571174328,3.000396219590771,-8.543773955688884,-6.910036037752293,0.0,0.0
2.7655310621242486,-0.5327697344247999,1.5241524094374497,2.826707752833863,-8.684423337845397,-6.7090686255786345,0.0,0.0
2.785571142284569,-0.5043501164193438,1.4209809002728069,2.651898100901186,-8.740482596633845,-6.456160111846467,0.0,0.0
2.8056112224448895,-0.4776027250687326,1.3373695675305601,2.4776402482298123,-8.712892633568684,-6.120410129472265,0.0,0.0
2.8256513026052104,-0.45215569696770924,1.2723514050511664,2.305468373692195,-8.60859372688088,-5.66445379437382,0.0,0.0
2.845691382765531,-0.427665036196069,1.2245330385820137,2.1366959897913644,-8.438619195041511,-5.038724730384691,0.0,0.0
2.8657314629258517,-0.40380521494512617,1.1929910625471407,1.9723768082501305,-8.215959077061697,-4.176905168307549,0.0,0.0
2.885771543086172,-0.38024158367897987,1.1781815633073154,1.8132929083279419,-7.954194996109428,-3.008363794291621,0.0,0.0
2.905811623246493,-0.3565926129945796,1.1824485342200128,1.65994412244094,-7.667439294350098,-1.5338280860646265,0.0,0.0
2.9258517034068134,-0.3324127676932516,1.2089922650663998,1.5125191799340243,-7.371247125345777,-0.0392929696733888,0.0,0.0
2.9458917835671343,-0.3072762834135482,1.256824213985172,1.3708770631243243,-7.0821058404849975,0.7206516024506397,0.0,0.0
2.9659318637274548,-0.28103298974014607,1.3121646836701053,1.2346647362155292,-6.810616345439757,0.1217181013588976,0.0,0.0
2.9859719438877756,-0.25402679228468245,1.35030987277318,1.1036226678319456,-6.552103419179179,-1.4940839484275483,0.0,0.0
3.006012024048096,-0.22697374852898292,1.352652187784976,0.9777956202382453,-6.291352379685018,-3.4383842594484983,0.0,0.0
3.0260521042084165,-0.2007149271839266,1.3129410672528155,0.8575069829118885,-6.014431866317837,-5.352781871732912,0.0,0.0
3.0460921843687374,-0.1760848951600565,1.2315016011935063,0.7432597418587508,-5.712362052656889,-7.122238586066832,0.0,0.0
3.066132264529058,-0.15386541062990644,1.1109742265075024,0.6356495074783606,-5.380511719019507,-8.716416365400162,0.0,0.0
3.0861723446893787,-0.13476840718290004,0.9548501723503208,0.5352946226119548,-5.017744243320288,-9.999999999991982,0.0,0.0
3.106212424849699,-0.11937831202846277,0.7695047577218628,0.4427168025147916,-4.628891004858161,-9.999999999999977,0.0,0.0
3.12625250501002,-0.10777156666483775,0.5803372681812513,0.35778107611041465,-4.246786320218847,-9.99999999999963,0.0,0.0
3.1462925851703405,-0.10000345132262073,0.3884057671108515,0.28029318132046394,-3.874394739497535,-9.999999999999922,0.0,0.0
3.1663326653306614,-0.09611108608268094,0.19461826199698945,0.2100141536981332,-3.5139513811165375,-9.999999999999998,0.0,0.0
3.186372745490982,-0.09611681079304803,-0.0002862355183539389,0.1466752755559899,-3.1669439071071657,-9.99999999591108,0.0,0.0
3.2064128256513023,-0.10003153304335893,-0.19573611251554499,0.08999213585569393,-2.8341569850147974,-9.999999999098387,0.0,0.0
3.226452905811623,-0.10785777706605666,-0.3913122011348864,0.03967699631663348,-2.5157569769530226,-9.999999999584794,0.0,0.0
3.2464929859719436,-0.11959229473938326,-0.5867258836663303,-0.004550911621554521,-2.2113953969094,-9.999999999467581,0.0,0.0
3.2665330661322645,-0.1352281969675324,-0.7817951114074574,-0.042957201107490114,-1.9203144742967795,-9.999999999999998,0.0,0.0
