time,x,x_dot,theta,theta_dot,u,x_ref,theta_ref
0.0,-1.3590286785009278,0.014445899094416778,-0.049145778415411984,-0.03541296402537153,-9.639402669996183,0.0,0.0
0.02004008016032064,-1.3624865823959413,-0.17289519475067827,-0.04453277746054781,0.23065004774320874,-8.599844704910605,0.0,0.0
0.04008016032064128,-1.3692871837984024,-0.340030070123055,-0.03517543267689093,0.4678672391828439,-7.81114390186296,0.0,0.0
0.06012024048096192,-1.3791256983695723,-0.4919257285584989,-0.021473541218143107,0.6850945729373913,-6.956795508725014,0.0,0.0
0.08016032064128256,-1.3916728879956637,-0.6273594813045678,-0.0038382869655611655,0.881762712629097,-6.054033517348934,0.0,0.0
0.1002004008016032,-1.40658147481515,-0.7454293409743147,0.01731426959938991,1.0576278282475537,-5.106790694276151,0.0,0.0
0.12024048096192384,-1.4234874047635373,-0.8452964974193664,0.04156225996284668,1.2123995181728386,-4.11596302440642,0.0,0.0
0.1402805611222445,-1.4420099946010279,-0.926129491874528,0.06847579574086074,1.3456767889007033,-3.081503207042415,0.0,0.0
0.16032064128256512,-1.4617517988532833,-0.9870902126127785,0.09761479938197527,1.4569501820557267,-2.0033135729017815,0.0,0.0
0.18036072144288576,-1.4822985553562225,-1.0273378251469603,0.12852743878267514,1.545631970034993,-0.8819120427408964,0.0,0.0
0.2004008016032064,-1.5032194693459524,-1.0460456994864944,0.16074952910711093,1.6111045162217887,0.28095459822899027,0.0,0.0
0.22044088176352705,-1.524068064006779,-1.0424297330413308,0.19380515976105728,1.6527815326973172,1.4817232969334062,0.0,0.0
0.24048096192384769,-1.544383802937776,-1.0157869465498623,0.22720870707471988,1.6701773656831298,2.7144496754150884,0.0,0.0
0.2605210420841683,-1.5636946692222777,-0.9655433142250851,0.2604682968533706,1.662979488932535,3.970266253976469,0.0,0.0
0.280561122244489,-1.5815208667436005,-0.8913098760661405,0.29309069421852174,1.6311198682575567,5.236875617634026,0.0,0.0
0.3006012024048096,-1.597379789946025,-0.7929461601212193,0.32458752916039646,1.5748417470937357,6.498124106566813,0.0,0.0
0.32064128256513025,-1.6107923770545762,-0.6706293554275603,0.3544827110093881,1.4947590924495815,7.733755718000306,0.0,0.0
0.3406813627254509,-1.621290899133571,-0.5249261039497415,0.3823208279370025,1.391905846380719,8.919538967703609,0.0,0.0
0.3607214428857715,-1.6284281077349938,-0.3568604300711399,0.40767622954444294,1.2677700803720209,9.999999978145677,0.0,0.0
0.3807615230460922,-1.6317982533171829,-0.16850727910944902,0.43017720245273683,1.125048645414694,9.999999999536263,0.0,0.0
0.4008016032064128,-1.6314122520648697,0.01930006261565953,0.4500110927129909,0.9916945130127042,9.999999999999996,0.0,0.0
0.42084168336673344,-1.6272797433379371,0.2066254363466332,0.46734393161872806,0.8666419452868589,9.999999999997945,0.0,0.0
0.4408817635270541,-1.6194091369891312,0.39353031744029854,0.4823213992582231,0.7488733819747521,9.999999999999998,0.0,0.0
0.4609218436873747,-1.6078076731563529,0.5800731916389181,0.49506975661771674,0.6374178679746835,9.999999999999998,0.0,0.0
0.48096192384769537,-1.5924814861781103,0.7663093489121326,0.5056967123094818,0.5313477845882486,9.999999999999048,0.0,0.0
0.501002004008016,-1.573435666970613,0.9522909603748586,0.5142922011293494,0.4297744409933792,9.999999999999998,0.0,0.0
0.5210420841683366,-1.5506743201109556,1.138067342982871,0.520929059512229,0.33184291914398073,9.999999999999128,0.0,0.0
0.5410821643286573,-1.5242006131984198,1.323685345626793,0.5256635883967922,0.2367264442281568,9.999999999999998,0.0,0.0
0.561122244488978,-1.4940168169715826,1.509189811341861,0.5285359976867948,0.14362046450013438,10.0,0.0,0.0
0.5811623246492986,-1.4601243352632411,1.694624085417072,0.529570728911268,0.05173656122365805,10.0,0.0,0.0
0.6012024048096192,-1.4225237242705262,1.8800305496357472,0.5287766542268791,-0.039703734219445286,10.0,0.0,0.0
0.6212424849699398,-1.3812147008753883,2.0654511697568965,0.5261471508750458,-0.13147516759166378,10.0,0.0,0.0
0.6412825651302605,-1.3361961399276971,2.250928047384557,0.5216600508467548,-0.22435500141455114,9.999999999994916,0.0,0.0
0.6613226452905812,-1.2874660605474286,2.4365039690134314,0.515277466027339,-0.3191292409707903,10.0,0.0,0.0
0.6813627254509018,-1.23502160165797,2.6222229444729317,0.506945489685893,-0.4165988170723003,10.0,0.0,0.0
0.7014028056112224,-1.178858987174801,2.808130724158455,0.4965937760407468,-0.5175856822573133,10.0,0.0,0.0
0.721442885771543,-1.1189734815939312,2.994275279043492,0.48413500100226325,-0.6229387519241758,9.999999999999986,0.0,0.0
0.7414829659318637,-1.055359337215364,3.1807072189283625,0.46946420934675925,-0.7335395827751986,9.99999999999535,0.0,0.0
0.7615230460921844,-0.9880097349783976,3.3674801118483226,0.45245805686588414,-0.8503076240437568,9.999999999998597,0.0,0.0
0.781563126252505,-0.9169167219817957,3.554650649830093,0.4329739609249159,-0.9742047970484101,10.0,0.0,0.0
0.8016032064128256,-0.842071150347935,3.7422785816930384,0.4108491799487155,-1.10623904881002,9.999999999999995,0.0,0.0
0.8216432865731462,-0.7634626243392719,3.9304263004331554,0.3858998524017714,-1.2474663773472066,9.999999999994609,0.0,0.0
0.8416833667334669,-0.6810794657646891,4.119157928729137,0.3579200397986622,-1.3989906301554582,9.999999999999998,0.0,0.0
0.8617234468937875,-0.5949087119819887,4.308537689135022,0.3266808373281457,-1.5619601235258256,9.99999999999939,0.0,0.0
0.8817635270541082,-0.5049361665008764,4.498627274055617,0.2919296410994551,-1.737559811434529,9.999999999999998,0.0,0.0
0.9018036072144289,-0.41114652960174847,4.6894818449563935,0.25338969412300416,-1.926997348822544,9.999999999999998,0.0,0.0
0.9218436873747494,-0.31352364570873115,4.881144194650867,0.2107600748931568,-2.131480961492369,9.999999999788617,0.0,0.0
0.9418837675350701,-0.2120509154580013,5.073636512536491,0.16371634287897951,-2.3521866007088645,9.999999999999998,0.0,0.0
0.9619238476953907,-0.10671193296809413,5.266949124495359,0.11191211238653428,-2.5902115246222612,9.999999999999405,0.0,0.0
0.9819639278557114,0.0025085786395885185,5.461025580384132,0.05498188455562431,-2.8465113915454987,9.308909374563573,0.0,0.0
1.002004008016032,0.1153538286780435,5.642262501922749,-0.0070509150558716455,-3.101639980574798,7.238038103816392,0.0,0.0
1.0220440881763526,0.23102423712074638,5.783520422135143,-0.07336013320917155,-3.3154609076649955,4.56497964152727,0.0,0.0
1.0420841683366733,0.3484805507443436,5.872815681179862,-0.14277003680147743,-3.470495179615293,0.7921321744459058,0.0,0.0
1.062124248496994,0.46625243997019905,5.888594461292771,-0.21348431120619557,-3.5357137202359072,-2.540512320196474,0.0,0.0
1.0821643286573146,0.5830438457449543,5.839570288737763,-0.28400714193079446,-3.5261415362299453,-5.517016307070976,0.0,0.0
1.1022044088176353,0.6977037279518583,5.732994110345199,-0.35310925993791986,-3.45510590035627,-8.203234667977043,0.0,0.0
1.122244488977956,0.809202595962034,5.574943400508786,-0.419797311116638,-3.3344025589359068,-10.0,0.0,0.0
1.1422845691382766,0.9168640817000782,5.383074286902208,-0.4836274091101531,-3.1915048996757562,-9.99999999999984,0.0,0.0
1.1623246492985972,1.0207092315834922,5.192257494170709,-0.545125143832575,-3.074886736121099,-10.0,0.0,0.0
1.1823647294589177,1.1207581845752836,5.0024476495895716,-0.604803965087116,-2.9839410627270486,-9.999999999999938,0.0,0.0
1.2024048096192383,1.217029473730199,4.813564457745767,-0.6631656460584556,-2.9180840485669832,-9.999999999999991,0.0,0.0
1.222444889779559,1.309539510309367,4.6255018289584005,-0.7207015892568993,-2.876797159922182,-10.0,0.0,0.0
1.2424849699398797,1.3983021761612366,4.438133292593482,-0.7778946883715773,-2.8596549557338995,-9.999999999999991,0.0,0.0
1.2625250501002003,1.4833284653340162,4.251314458638976,-0.8352215266078938,-2.8663419118158298,-9.999999999992927,0.0,0.0
1.282565130260521,1.564626128579285,4.064883162263445,-0.8931547462809557,-2.8966609836530908,-10.0,0.0,0.0
1.3026052104208417,1.6421992846477333,3.8786578034224104,-0.9521654659749736,-2.950535984700895,-9.999999999999996,0.0,0.0
1.3226452905811623,1.7160479706690674,3.692434301066699,-1.0127256520370014,-3.028009303101383,-10.0,0.0,0.0
1.342685370741483,1.7861676113142442,3.505982032258838,-1.0753103723373905,-3.1292360150194507,-9.99999999999999,0.0,0.0
1.3627254509018036,1.852548393900209,3.319039129298239,-1.1403998733873906,-3.2544750525000077,-4.99987295116281,0.0,0.0
1.3827655310621243,1.9170145997076684,3.223310290372967,-1.2096322999547597,-3.461621328368459,-9.999999999999996,0.0,0.0
1.4028056112224447,1.9776967283455102,3.034106431892095,-1.2823574704385217,-3.6362585241880963,-10.0,0.0,0.0
1.4228456913827654,2.0345638247860514,2.8433548220270497,-1.3590894159687017,-3.8365972765090066,-10.0,0.0,0.0
1.442885771543086,2.087576181906318,2.650617856013336,-1.4403522620340214,-4.063142303265984,-9.99999999999989,0.0,0.0
1.4629258517034067,2.136684507228314,2.4554162660997982,-1.5266802650797282,-4.316400152285334,-10.0,0.0,0.0
1.4829659318637274,2.181829290498152,2.2572391634919144,-1.6186168430573067,-4.596828898878927,-9.999999999998261,0.0,0.0
1.503006012024048,2.222940570624686,2.0555640063267013,-1.7167120660102877,-4.9047611476490545,-9.999999999999963,0.0,0.0
1.5230460921843687,2.2599383914520335,1.84989104136737,-1.8215177453966298,-5.2402839693171,-10.0,0.0,0.0
1.5430861723446894,2.2927343545717616,1.6397981559863986,-1.933578783805061,-5.603051920421566,-9.999999999999822,0.0,0.0
1.56312625250501,2.3212348214281793,1.425023342820896,-2.053418807847174,-5.992001202105635,-9.999999999999988,0.0,0.0
1.5831663326653307,2.3453464667457133,1.2055822658767044,-2.1815173643574184,-6.404927825512231,-9.999999999999991,0.0,0.0
1.6032064128256511,2.3649849832164542,0.9819258235370341,-2.3182753383882413,-6.837898701541142,-9.999999999999785,0.0,0.0
1.6232464929859718,2.3800876553006884,0.7551336042117025,-2.463965297212422,-7.284497941209055,-0.40421310412222056,0.0,0.0
1.6432865731462925,2.394269937483389,0.7091141091350424,-2.6144142879873096,-7.522449538744361,-10.0,0.0,0.0
1.6633266533066131,2.403953134180021,0.4841598348315916,-2.773648364709965,-7.96170383613277,9.999999999999915,0.0,0.0
1.6833667334669338,2.416966015098719,0.6506440459349098,-2.9303388194165123,-7.834522735327358,-9.999999999999996,0.0,0.0
1.7034068136272544,2.425780246788811,0.44071158450461306,-3.094415573658051,-8.203837712076925,9.999999999999986,0.0,0.0
1.723446893787575,2.4384206858115074,0.6320219511347985,-3.253040108619624,-7.931226748078645,-9.999999999999996,0.0,0.0
1.7434869739478958,2.447330421129459,0.44548676589758124,-3.416568961567504,-8.176442647394017,9.999999999998703,0.0,0.0
1.7635270541082164,2.460548276919784,0.6608927895162764,-3.572286727412335,-7.785888292241529,-9.999999999999307,0.0,0.0
1.783567134268537,2.4705079532455705,0.4979838162893174,-3.729989288564556,-7.885128057611056,10.0,0.0,0.0
1.8036072144288577,2.4850718309528967,0.7281938853663068,-3.878689031076244,-7.434987125584383,-2.514253880462171,0.0,0.0
1.8236472945891782,2.499525810222374,0.7226989634738552,-4.023561034845192,-7.243600188447403,9.999999999999995,0.0,0.0
1.8436873747494988,2.5186112029874876,0.9542696382556961,-4.159483504297691,-6.7961234726249735,-5.303607738789699,0.0,0.0
1.8637274549098195,2.5365810662126393,0.898493161257577,-4.2912834076044835,-6.589995165339609,-1.3316807712023784,0.0,0.0
1.8837675350701402,2.554890817031827,0.9154875409593728,-4.417512080378446,-6.311433638698087,-8.727538200556575,0.0,0.0
1.9038076152304608,2.5707802623487774,0.7944722658475227,-4.539172492592008,-6.083020610678132,-9.999999999999915,0.0,0.0
1.9238476953907815,2.583735468567383,0.6477603109302865,-4.6558026211732715,-5.831506429063196,-9.999999999999998,0.0,0.0
1.9438877755511021,2.5936860483568567,0.49752898947367286,-4.7668205640111365,-5.550897141893248,-9.999999999998808,0.0,0.0
1.9639278557114228,2.600544527408716,0.3429239525929638,-4.871718702937347,-5.244906946310545,-10.0,0.0,0.0
1.9839679358717435,2.604213159700273,0.1834316145778624,-4.970056284512773,-4.9168790787712755,-9.999999999884812,0.0,0.0
2.004008016032064,2.6045900923135252,0.0188466306626075,-5.061454105825131,-4.569891065617928,-10.0,0.0,0.0
2.024048096192385,2.6015745833003887,-0.15077545065683598,-5.145590649777341,-4.206827197610479,-9.999999999999947,0.0,0.0
2.0440881763527052,2.5950711100432104,-0.3251736628589059,-5.2221987951571895,-3.830407268992424,-9.999999999983869,0.0,0.0
2.064128256513026,2.5849923206813084,-0.5039394680951157,-5.291062305649762,-3.4431755246286073,-9.999999999979751,0.0,0.0
2.0841683366733466,2.571260880878045,-0.6865719901631773,-5.352011564370639,-3.0474629360438934,-10.0,0.0,0.0
2.1042084168336674,2.55381034930381,-0.8725265787117532,-5.40491835366077,-2.64533946450656,-10.0,0.0,0.0
2.124248496993988,2.5325852720687965,-1.0612538617506746,-5.449689791161503,-2.2385718750366013,-10.0,0.0,0.0
2.1442885771543083,2.507540715411564,-1.2522278328616228,-5.48626176296745,-1.8285985902973416,-9.999999999991372,0.0,0.0
2.164328657314629,2.4786414582579743,-1.4449628576794848,-5.5145923199478535,-1.4165278490201776,-10.0,0.0,0.0
2.1843687374749496,2.445861047189471,-1.6390205534251714,-5.534655531521966,-1.003160578705641,-9.999999999999224,0.0,0.0
2.2044088176352705,2.4091808836105923,-1.8340081789439329,-5.54643624756557,-0.5890358021801854,-9.999999999964876,0.0,0.0
2.224448897795591,2.368589474060024,-2.029570477528407,-5.549926133668687,-0.1744943051558403,-9.999999999992616,0.0,0.0
2.244488977955912,2.324081935276361,-2.2253769391831577,-5.545121242492205,0.24024455882410162,-9.999999999722972,0.0,0.0
2.2645290581162323,2.27565980866542,-2.421106330547035,-5.532021279508905,0.6549981491650012,-10.0,0.0,0.0
2.284569138276553,2.2233312044834186,-2.616430209100071,-5.51063062002815,1.069532974037757,-9.999999999971752,0.0,0.0
2.3046092184368736,2.1671112628033584,-2.8109970840030174,-5.4809610340805435,1.4834792973803061,-9.9999999999473,0.0,0.0
2.3246492985971945,2.1070228838865983,-3.0044189458380064,-5.443035971817084,1.8962531131729858,-9.999999999999998,0.0,0.0
2.344689378757515,2.0430976431380032,-3.1962620374297455,-5.396896152265952,2.3069909775565973,-9.99999999999973,0.0,0.0
2.3647294589178354,1.9753767652088807,-3.3860438964561226,-5.342606087363425,2.7145032451263456,-9.99999999995317,0.0,0.0
2.3847695390781563,1.9039119904625943,-3.5732387373143224,-5.2802610763840425,3.117250548969137,-9.999999984364882,0.0,0.0
2.4048096192384767,1.828766130403057,-3.757293002976868,-5.2099941493992965,3.5133463492373016,-9.999999999928704,0.0,0.0
2.4248496993987976,1.7500130847418265,-3.9376522830615226,-5.131982454857421,3.9005847270937792,-8.262307556623389,0.0,0.0
2.444889779559118,1.6683762063547838,-4.0818439193521385,-5.046843014362422,4.256972024749909,-5.146929516810652,0.0,0.0
2.464929859719439,1.5850839739184943,-4.16461162181447,-4.95533830127576,4.575235654333102,-2.1121493637239523,0.0,0.0
2.4849699398797593,1.5013289113763726,-4.187753127106087,-4.857962925094785,4.86876880904873,0.6289645190690729,0.0,0.0
2.50501002004008,1.418191551863161,-4.156867975660585,-4.754907698989644,5.152761305257059,2.964636971220719,0.0,0.0
2.5250501002004007,1.3366033977999887,-4.079407703158613,-4.646080170404525,5.441376429255974,4.840252612540776,0.0,0.0
2.5450901803607215,1.2573308426335692,-3.9636277583209703,-4.53115922406363,5.746047317044739,6.239191858434879,0.0,0.0
2.565130260521042,1.180971366144453,-3.8179738244558137,-4.409671103219205,6.074406042221216,7.1811916500142345,0.0,0.0
2.5851703406813624,1.1079598894292086,-3.650573835762211,-4.281077651697045,6.429672576108041,7.7140766760552415,0.0,0.0
2.6052104208416833,1.0385810448023192,-3.4689422313444775,-4.144869459388654,6.810409615419501,7.905804343353158,0.0,0.0
2.6252505010020037,0.9729836680939251,-3.279868835419703,-4.000658988201457,7.210523559359832,7.836931427612749,0.0,0.0
2.6452905811623246,0.9111947083635086,-3.0894479865208275,-3.848269926794414,7.619453070352157,7.592830417422733,0.0,0.0
2.665330661322645,0.8531308810164656,-2.90319136735215,-3.687818383228904,8.022577178275483,7.2557324709782165,0.0,0.0
2.685370741482966,0.7986081266973608,-2.72613771595524,-3.519778399552482,8.401999183821117,6.896178726024606,0.0,0.0
2.7054108216432864,0.747350819756993,-2.562865347018389,-3.345019466308115,8.73794666221834,6.565193672003012,0.0,0.0
2.7254509018036073,0.6990044128030757,-2.4173203476958673,-3.1647997133618513,9.010987647313176,6.290116683874962,0.0,0.0
2.7454909819639277,0.6531558877189991,-2.2924262542038285,-2.9807001261574926,9.20497936021794,6.075576895102801,0.0,0.0
2.7655310621242486,0.6093641799390225,-2.1895853889988346,-2.794498445152337,9.31008405025777,5.908927426352804,0.0,0.0
2.785571142284569,0.5671975617843615,-2.1083309077330448,-2.6080048605941806,9.324679227907826,5.766922955535207,0.0,0.0
2.8056112224448895,0.5262695097837091,-2.0464026000326223,-2.422901540495904,9.255166004913834,5.619146613809396,0.0,0.0
2.8256513026052104,0.4862625685894293,-2.000347059713992,-2.2406279081630727,9.113681616641578,5.425754503124446,0.0,0.0
2.845691382765531,0.4469325472553867,-1.9665010667021279,-2.0623308741777464,8.914851699266322,5.131237957582595,0.0,0.0
2.8657314629258517,0.40809077952983575,-1.9420883862775482,-1.888869014382049,8.673092989784873,4.661614810676503,0.0,0.0
2.885771543086172,0.3695678460796723,-1.9261466725081715,-1.7208392515964483,8.401488139280032,3.9481257826061675,0.0,0.0
2.905811623246493,0.33117236558604135,-1.9197740246815471,-1.5585912338233934,8.112400888652745,3.0396066519570173,0.0,0.0
2.9258517034068134,0.29268898004645905,-1.9241692769791159,-1.4022174973809853,7.818686822120405,2.3408126170501347,0.0,0.0
2.9458917835671343,0.25400486197018546,-1.9342059038136779,-1.2515862993905,7.531559899524266,2.5502250422540538,0.0,0.0
2.9659318637274548,0.21534862092602622,-1.9328120522079622,-1.1065476921341337,7.251930362818315,3.809520544693865,0.0,0.0
2.9859719438877756,0.17733843831569007,-1.900509130516807,-0.9671970903912968,6.967530087141848,5.579989313086632,0.0,0.0
3.006012024048096,0.14078750462157105,-1.8275466847059507,-0.8339261061540637,6.663549211861652,7.448817505193109,0.0,0.0
3.0260521042084165,0.1065514970512714,-1.7118003785149831,-0.7073388804559337,6.329361284906496,9.260128176541485,0.0,0.0
3.0460921843687374,0.07546543096080185,-1.5543033045234773,-0.5881593040813805,5.958978818727661,9.999999999999728,0.0,0.0
3.066132264529058,0.04794917578828492,-1.3758127586258468,-0.47669223899259855,5.573353254439098,9.999999999999966,0.0,0.0
3.0861723446893787,0.024117232423192123,-1.1915971682546398,-0.37282878005223846,5.193172947018004,9.99999999990041,0.0,0.0
3.106212424849699,0.0040565279186263944,-1.0030352252282864,-0.27637072656555267,4.822902674334289,9.999999999999984,0.0,0.0
3.12625250501002,-0.01217137513522528,-0.8113951526925838,-0.18704369959283318,4.466351348635974,10.0,0.0,0.0
3.1462925851703405,-0.024526813982520473,-0.6177719423647596,-0.10451322260392595,4.126523849445361,10.0,0.0,0.0
3.1663326653306614,-0.032988012063835684,-0.42305990406576066,-0.02840164094171438,3.8055790831105787,10.0,0.0,0.0
3.186372745490982,-0.03754706738838345,-0.2279527662273882,0.04169586678227562,3.5048753861994997,9.99999999999992,0.0,0.0
3.2064128256513023,-0.0382063044821412,-0.032961854687887426,0.10619732962198233,3.2250731419853356,10.0,0.0,0.0
3.226452905811623,-0.034975177716731885,0.16155633827046564,0.16552262436865386,2.9662647373335767,10.0,0.0,0.0
3.2464929859719436,-0.027867781810134645,0.355369795329862,0.22008479629392258,2.7281085962634357,10.0,0.0,0.0
3.2665330661322645,-0.016900940300461072,0.5483420754836786,0.27028384440473063,2.509952405540402,10.0,0.0,0.0
3.286573146292585,-0.002092797806889755,0.7404071246785658,0.3165026048420566,2.3109380218662974,10.0,0.0,0.0
3.306613226452906,0.01653817455691476,0.9315486181902257,0.3591043217396971,2.130085844882023,10.0,0.0,0.0
