time,x,x_dot,theta,theta_dot,u,x_ref,theta_ref
0.0,1.7746221640471802,0.07026618345340588,-0.1711201989544251,-0.04177384338648036,5.4754647999308865,0.0,0.0
0.02004008016032064,1.778207625843181,0.179273089800036,-0.17617676565467089,-0.25282833501228924,4.719187669081558,0.0,0.0
0.04008016032064128,1.7836796418628706,0.27360080098448647,-0.18504754560834064,-0.4435389976834878,3.8886401904471595,0.0,0.0
0.06012024048096192,1.790716365983342,0.35183620602356475,-0.19730508119456677,-0.612876779311307,2.9549571985178487,0.0,0.0
0.08016032064128256,1.7989564720521587,0.41200530344083036,-0.21248348407408457,-0.7589201439758895,1.9638748139074744,0.0,0.0
0.1002004008016032,1.8080169842875622,0.45302561177017847,-0.23010331663528047,-0.8809916280597944,0.9274959274661907,0.0,0.0
0.12024048096192384,1.8174980285919897,0.4740522152213713,-0.24967719930492352,-0.9786941334821524,-0.14770540198049642,0.0,0.0
0.1402805611222445,1.8269854175856493,0.47436944968298067,-0.27071228679634673,-1.0517543745711617,-1.2552588117006183,0.0,0.0
0.16032064128256512,1.8360532542729866,0.45339183436686403,-0.29271277913522736,-1.100024616944032,-2.387250252277057,0.0,0.0
0.18036072144288576,1.844267101584184,0.41069236555987565,-0.31518315882895614,-1.1235189846864397,-3.5336661099328666,0.0,0.0
0.2004008016032064,1.8511879486167937,0.3460423516304776,-0.33763233669184717,-1.1224588931445516,-4.681939234966322,0.0,0.0
0.22044088176352705,1.8563771210405975,0.2594586211901897,-0.35957874194067846,-1.097320262441564,-5.816648691003588,0.0,0.0
0.24048096192384769,1.8594022229943379,0.15125509768702244,-0.3805563053437013,-1.0488781701511416,-6.919456487378536,0.0,0.0
0.2605210420841683,1.8598441105252694,0.022094376546574368,-0.40012119171057214,-0.9782443183435433,-7.9694198846009305,0.0,0.0
0.280561122244489,1.857304761009276,-0.12696747579966616,-0.4178590155217783,-0.8868911905603064,-8.943829251461597,0.0,0.0
0.3006012024048096,1.8514157141299916,-0.29445234396422665,-0.4333921150185769,-0.7766549748399302,-9.81965291891311,0.0,0.0
0.32064128256513025,1.8418465427676607,-0.4784585681165504,-0.4463862915629054,-0.6497088272164251,-9.99999999712874,0.0,0.0
0.3406813627254509,1.8285341851965418,-0.6656178785559448,-0.45685588914721903,-0.5234798792156836,-9.999999999999991,0.0,0.0
0.3607214428857715,1.811483872220342,-0.8525156488099904,-0.46488893806262194,-0.4016524457701458,-9.999999999999995,0.0,0.0
0.3807615230460922,1.7906996329225244,-1.0392119648908713,-0.47055313514713304,-0.2832098542255539,-9.999999999999996,0.0,0.0
0.4008016032064128,1.7661843340966041,-1.2257649412960188,-0.47389631480056055,-0.1671589826713753,-9.999999999999755,0.0,0.0
0.42084168336673344,1.73793971072467,-1.4122311685967117,-0.4749467922698667,-0.052523873465308166,-9.999999999999996,0.0,0.0
0.4408817635270541,1.7059663857160534,-1.5986662504308249,-0.47371357195660474,0.061661015663096674,-9.999999999999998,0.0,0.0
0.4609218436873747,1.6702638779255532,-1.7851253895250148,-0.47018641687025986,0.17635775431724324,-9.999999999993122,0.0,0.0
0.48096192384769537,1.6308305981095301,-1.9716639908011566,-0.46433577805208753,0.2925319409086168,-9.999999999985812,0.0,0.0
0.501002004008016,1.5876638330536492,-2.158338252794047,-0.45611258526973514,0.41115963911761993,-9.999999999712694,0.0,0.0
0.5210420841683366,1.5407597187161908,-2.345205716872922,-0.44544790295690095,0.5332341156417105,-9.99999999959881,0.0,0.0
0.5410821643286573,1.4901132039759024,-2.532325737014422,-0.4322524586831641,0.6597722136868442,-9.99999999985564,0.0,0.0
0.561122244488978,1.4357180075679616,-2.719759820397042,-0.416416055883782,0.7918201399691034,-9.999999999976108,0.0,0.0
0.5811623246492986,1.377566572167526,-2.907571770021776,-0.3978068887432569,0.930458357026253,-9.999999999999886,0.0,0.0
0.6012024048096192,1.3156500215014155,-3.095827533305526,-0.3762707857307013,1.0768051506277811,-9.999999999999325,0.0,0.0
0.6212424849699398,1.2499581290371442,-3.284594623213567,-0.35163042021784413,1.232018275642856,-9.999999999930605,0.0,0.0
0.6412825651302605,1.1804793104536193,-3.473940929176245,-0.3236845429376883,1.3972938640077932,-9.999999968496276,0.0,0.0
0.6613226452905812,1.1072006570284234,-3.6639326712597935,-0.2922073130148924,1.573861496139795,-9.999999999996582,0.0,0.0
0.6813627254509018,1.0301080334741146,-3.854631177715435,-0.25694783308636887,1.7629739964261755,-9.25136650018089,0.0,0.0
0.7014028056112224,0.9494770354301643,-4.03154990219752,-0.21805159404826982,1.9448119519049523,-8.340003111238989,0.0,0.0
0.721442885771543,0.8656470722029017,-4.19149816136313,-0.17574466959666618,2.1153462225801816,-7.388693163087633,0.0,0.0
0.7414829659318637,0.778974282024491,-4.333639508920531,-0.13026923612745167,2.2737716734607254,-6.384553926470445,0.0,0.0
0.7615230460921844,0.6898369287482129,-4.456867663813907,-0.0818939124526616,2.4187661837395034,-5.306702303742371,0.0,0.0
0.781563126252505,0.5986437991063728,-4.559656482092008,-0.030927876258759944,2.548301809695083,-4.146979964137278,0.0,0.0
0.8016032064128256,0.505837463958491,-4.640316757394085,0.02227358690881706,2.66007315837885,-2.900448968448895,0.0,0.0
0.8216432865731462,0.41189603173882705,-4.697071610983199,0.07730708618901343,2.751674964009818,-1.5458003384755732,0.0,0.0
0.8416833667334669,0.3173409941699131,-4.727751878445697,0.1337115007093891,2.820220726018783,-0.08071924067175673,0.0,0.0
0.8617234468937875,0.2227373379325276,-4.730182811869277,0.19097154043908215,2.8630019864846528,1.4739804961182283,0.0,0.0
0.8817635270541082,0.1286843550270183,-4.702649145275465,0.24853649585444806,2.8782477707682954,3.11745951139239,0.0,0.0
0.9018036072144289,0.03581407165543102,-4.643514168579364,0.30582847881462066,2.86459914800863,4.883458331892239,0.0,0.0
0.9218436873747494,-0.05519697413754614,-4.5505522896488575,0.3622319395828774,2.820173038412838,6.76670234728829,0.0,0.0
0.9418837675350701,-0.14363112936093003,-4.421707761169195,0.41710549898711424,2.7436779702118423,8.885112018314862,0.0,0.0
0.9619238476953907,-0.22868530771547768,-4.252708917727382,0.4697272530048864,2.631087700888608,9.999999999999986,0.0,0.0
0.9819639278557114,-0.30994857297727574,-4.063163263089904,0.5199415640226303,2.510715550887195,9.99999999999642,0.0,0.0
1.002004008016032,-0.38744013752488576,-3.8745782273805007,0.5681685785283747,2.4113507252872215,10.0,0.0,0.0
1.0220440881763526,-0.4611778734863641,-3.6868867980739153,0.6148144613481319,2.3322941409878606,10.0,0.0,0.0
1.0420841683366733,-0.5311781144118457,-3.5000120462740827,0.6602730810730546,2.272930986246138,9.999999999999998,0.0,0.0
1.062124248496994,-0.5974555278326956,-3.3138706710424937,0.7049280264789092,2.2327472702927293,9.999999999999982,0.0,0.0
1.0821643286573146,-0.660023022323833,-3.128374724556873,0.7491548208581602,2.211339718962554,9.999999999999982,0.0,0.0
1.1022044088176353,-0.7188916609210702,-2.943431929861857,0.7933232374795453,2.208420831069252,9.999999999999938,0.0,0.0
1.122244488977956,-0.774070558745868,-2.758944891239892,0.8377996460971081,2.2238204308781433,9.999999999999995,0.0,0.0
1.1422845691382766,-0.8255667468811374,-2.574809406763469,0.8829493393251256,2.2574846614008792,10.0,0.0,0.0
1.1623246492985972,-0.8733849873722809,-2.390912024557173,0.9291388004763834,2.309473057562889,9.999999999999982,0.0,0.0
1.1823647294589177,-0.9175275261385322,-2.2071269383125633,0.9767378825918193,2.3799541057717915,10.0,0.0,0.0
1.2024048096192383,-0.9579937720079056,-2.02331229346867,1.02612187303876,2.469199522347041,10.0,0.0,0.0
1.222444889779559,-0.9947798914923582,-1.8393059742226316,1.0776734200695115,2.577577351537569,9.999999999999963,0.0,0.0
1.2424849699398797,-1.0278783108136957,-1.6549209660668733,1.1317842975843615,2.705543875742499,9.999999999969129,0.0,0.0
1.2625250501002003,-1.0572771196966064,-1.4699404441455381,1.1888569820118813,2.8536342213759918,9.99999999999294,0.0,0.0
1.282565130260521,-1.0829593763482404,-1.2841128325816935,1.2493060099574742,3.0224513972796494,9.999999999989749,0.0,0.0
1.3026052104208417,-1.1049023208654818,-1.0971472258620696,1.313559075209163,3.2126532625844475,9.999999999997799,0.0,0.0
1.3226452905811623,-1.1230765163979022,-0.9087097766210185,1.3820578052188555,3.424936500484617,9.99999999999949,0.0,0.0
1.342685370741483,-1.1374449555325739,-0.7184219567335872,1.455258124063222,3.660015942218336,10.0,0.0,0.0
1.3627254509018036,-1.1479621959153792,-0.525862019140269,1.533630051096362,3.918596351656998,10.0,0.0,0.0
1.3827655310621243,-1.1545736271539706,-0.3305715619295723,1.617656686845158,4.201331787439803,9.999999999999954,0.0,0.0
1.4028056112224447,-1.1572150244058959,-0.1320698625962632,1.7078319786535547,4.508764590419837,10.0,0.0,0.0
1.4228456913827654,-1.15581261713329,0.07012036363028962,1.8046566103672612,4.8412315856853265,9.999999999999812,0.0,0.0
1.442885771543086,-1.1502839982051898,0.2764309464050124,1.9086309925499643,5.198719109135157,5.495928182160391,0.0,0.0
1.4629258517034067,-1.142190516158471,0.40467410233594414,2.0194239099220197,5.539645868602768,9.999999999999975,0.0,0.0
1.4829659318637274,-1.1297984378680526,0.6196039145209156,2.138306546226134,5.944131815205718,-9.999999999999996,0.0,0.0
1.503006012024048,-1.1204396631701659,0.4679387348943382,2.2597001189768204,6.069678637534318,10.0,0.0,0.0
1.5230460921843687,-1.106675059782283,0.6882301693941462,2.3898283801271654,6.50641305751725,10.0,0.0,0.0
1.5430861723446894,-1.0884531257839967,0.9110966999143173,2.528850723250544,6.951117156168932,-9.999999999946002,0.0,0.0
1.56312625250501,-1.073380246911038,0.7536439436479263,2.6673907895845628,6.927003316700928,10.0,0.0,0.0
1.5831663326653307,-1.0539279305769433,0.972615816704733,2.8144548029686027,7.3532006692020015,-10.0,0.0,0.0
1.6032064128256511,-1.0379256083189257,0.8001161129008888,2.9585096007185623,7.2027398874979705,9.999999999999996,0.0,0.0
1.6232464929859718,-1.0177954270314824,1.0065090643721684,3.1097187568736113,7.560457807752448,-10.0,0.0,0.0
1.6432865731462925,-1.0015225477357466,0.8136439647867963,3.255335780760603,7.280851194349587,9.999999999999996,0.0,0.0
1.6633266533066131,-0.981500653729749,1.0010947002998765,3.4058695473957004,7.52668833175487,-10.0,0.0,0.0
1.6833667334669338,-0.9657208553279512,0.7889899200898943,3.5487299617417998,7.143020717304962,-5.770275423740151,0.0,0.0
1.7034068136272544,-0.9526600277004423,0.6530413813754415,3.6855207182654386,6.839537826181933,-9.999999999999828,0.0,0.0
1.723446893787575,-0.9440142663005554,0.43228806999434866,3.813607165782764,6.404322375866286,-8.930482409737692,0.0,0.0
1.7434869739478958,-0.9393776529538213,0.23183066733670663,3.9333320114553483,5.9862422836291955,-9.999999999999947,0.0,0.0
1.7635270541082164,-0.9391219335480111,0.012785970290507181,4.0442612037175705,5.546459613111119,-4.536278359909024,0.0,0.0
1.783567134268537,-0.9411443083215586,-0.1011187386773734,4.148461923219896,5.210035975116305,-10.0,0.0,0.0
1.8036072144288577,-0.9474237021850532,-0.313969693174733,4.244285198104957,4.791163744253038,-1.1683345178585345,0.0,0.0
1.8236472945891782,-0.9546206957234191,-0.35984967691829206,4.334243652431172,4.497922716310742,-9.99999999999979,0.0,0.0
1.8436873747494988,-0.9659257095674276,-0.5652506922004248,4.416467351234627,4.111184940172732,0.9751189723537408,0.0,0.0
1.8637274549098195,-0.9772446723500104,-0.5659481391291388,4.493064046562461,3.8298347663916994,-2.771256431783217,0.0,0.0
1.8837675350701402,-0.9898926695323871,-0.632399859118834,4.563491717025435,3.52138352314871,3.1896306729653143,0.0,0.0
1.9038076152304608,-1.0016416014228384,-0.5874465945225658,4.6283080166073765,3.240814979097043,4.824909731338681,0.0,0.0
1.9238476953907815,-1.0118479190136116,-0.5103158795386558,4.68746295453379,2.957746896320674,7.724425211128535,0.0,0.0
1.9438877755511021,-1.0194109079394793,-0.37814944629338537,4.740842150130628,2.668959779841894,9.66528422398279,0.0,0.0
1.9639278557114228,-1.023580927995353,-0.20850100279368594,4.78820269585653,2.368027286295123,9.999999989091073,0.0,0.0
1.9839679358717435,-1.0241946841634126,-0.030687808402988043,4.829300013239682,2.0548658691576147,9.999999999999996,0.0,0.0
2.004008016032064,-1.0212140486568229,0.1490317753294922,4.86393260868129,1.7316297720804268,9.999999999999995,0.0,0.0
2.024048096192385,-1.0146054484454656,0.3304300105678588,4.891935197795409,1.4001294557058928,9.999999999999996,0.0,0.0
2.0440881763527052,-1.004340675603419,0.5132386421023286,4.913177138317769,1.0620970261180034,9.999999999939108,0.0,0.0
2.064128256513026,-0.9903974653483214,0.6971605127548772,4.9275610453238885,0.71919535030599,9.999999984447939,0.0,0.0
2.0841683366733466,-0.9727598867654237,0.8818789291448884,4.935021666614085,0.3730310645097943,9.999999999999996,0.0,0.0
2.1042084168336674,-0.9514185878342223,1.0670649465600692,4.935525095667312,0.025171452661321536,9.999999999938458,0.0,0.0
2.124248496993988,-0.9263709272728691,1.2523830280676629,4.9290683842632435,-0.32283557020340703,9.999999996680502,0.0,0.0
2.1442885771543083,-0.897621012188849,1.4374957542010032,4.915679589405751,-0.6694397428746245,9.999999999999993,0.0,0.0
2.164328657314629,-0.8651796447815174,1.6220683703665797,4.895418254565688,-1.013066742003162,9.999999452957374,0.0,0.0
2.1843687374749496,-0.8290641652283054,1.8057739776605999,4.868376289486738,-1.352098253947507,8.805877055494314,0.0,0.0
2.2044088176352705,-0.7897331036842479,1.9665530772028752,4.834780474323354,-1.6797907581692113,6.924364478087545,0.0,0.0
2.224448897795591,-0.7479001042339636,2.0916499725142144,4.794894397895894,-1.9943038213730064,4.9783927321882055,0.0,0.0
2.244488977955912,-0.7043060949988736,2.1797004617544955,4.7489344272073115,-2.2979985344291345,3.0565230839050814,0.0,0.0
2.2645290581162323,-0.6596867271279117,2.2309683935480997,4.697045892235869,-2.5944267485721206,1.2128791495963094,0.0,0.0
2.284569138276553,-0.6147527731574255,2.2466976985243057,4.639288956906835,-2.887846766451715,-0.5064937353727583,0.0,0.0
2.3046092184368736,-0.5701738089247071,2.2289482116359194,4.575632522013846,-3.182821744649464,-2.066465820101709,0.0,0.0
2.3246492985971945,-0.5265660600565136,2.1803874434096735,4.505956139263164,-3.4838191375341196,-3.4428103208676903,0.0,0.0
2.344689378757515,-0.4844841839467463,2.104093805488367,4.4300593499347345,-3.794839466421479,-4.621332644336094,0.0,0.0
2.3647294589178354,-0.44441637855636373,2.0033902695191275,4.347677747126261,-4.119080140423649,-5.597121234052668,0.0,0.0
2.3847695390781563,-0.4067821885575921,1.8817094999385822,4.258505103937879,-4.458632159419102,-6.37413247491291,0.0,0.0
2.4048096192384767,-0.37193244499092437,1.7424871783333853,4.162220949422411,-4.814207725773404,-6.964983386405698,0.0,0.0
2.4248496993987976,-0.34015082365284055,1.589081066904192,4.058522939184642,-5.184900511888457,-7.390298534725841,0.0,0.0
2.444889779559118,-0.31165637972279303,1.4247221965023749,3.9471633512708877,-5.567979395687706,-7.676911206422463,0.0,0.0
2.464929859719439,-0.286606134341457,1.2525122690668014,3.827989144939409,-5.958710316573944,-7.854754573958937,0.0,0.0
2.4849699398797593,-0.26509659796696305,1.0754768187246968,3.700985067268546,-6.350203883543143,-7.952504173226734,0.0,0.0
2.50501002004008,-0.2471631520049299,0.8966722981016588,3.5663189093313035,-6.733307896862138,-7.992483506850411,0.0,0.0
2.5250501002004007,-0.23277667712114347,0.719323744189321,3.4243865706777967,-7.096616932675327,-7.985941449848968,0.0,0.0
2.5450901803607215,-0.22183789364556541,0.5469391737789023,3.275851483995989,-7.426754334090385,-7.929959515271593,0.0,0.0
2.565130260521042,-0.2141713755068898,0.3833259069337809,3.121668628367353,-7.709142781431802,-7.8072111729529245,0.0,0.0
2.5851703406813624,-0.2095225357986875,0.23244198541011643,2.9630800525944156,-7.929428788646873,-7.589085310760053,0.0,0.0
2.6052104208416833,-0.20756103502622952,0.09807503862289774,2.8015704393788057,-8.075480660780494,-7.240954933241677,0.0,0.0
2.6252505010020037,-0.20789202083735533,-0.01654929055628998,2.6387808002648203,-8.139481955699276,-6.7267628774718204,0.0,0.0
2.6452905811623246,-0.2100726110631733,-0.10902951129089804,2.4763934092894586,-8.119369548768075,-6.010113894582673,0.0,0.0
2.665330661322645,-0.21362713089028262,-0.17772599135546588,2.316012494824809,-8.019045723232486,-5.050840084418681,0.0,0.0
2.685370741482966,-0.21805322717314993,-0.2213048141433656,2.159064325786703,-7.847408451905308,-3.7987745855848316,0.0,0.0
2.7054108216432864,-0.22281293276057895,-0.2379852793714507,2.0067271745843582,-7.616857560117239,-2.1909016190582165,0.0,0.0
2.7254509018036073,-0.22730767846171207,-0.224737285056656,1.8598844970408954,-7.342133877173141,-0.1698334672074453,0.0,0.0
2.7454909819639277,-0.2308464466783268,-0.17693841083073664,1.71908284138135,-7.040082782977273,2.226821541776623,0.0,0.0
2.7655310621242486,-0.2326425878058698,-0.08980705637715078,1.5844789763183913,-6.730193253147936,4.6279117144766495,0.0,0.0
2.785571142284569,-0.2319286881917313,0.03569498070692545,1.4558023707192793,-6.433830279955595,6.1060470493503765,0.0,0.0
2.8056112224448895,-0.22827456509078295,0.1827061550474177,1.33245755327943,-6.167240871992458,5.792295618940666,0.0,0.0
2.8256513026052104,-0.2218930783111652,0.31907433898088766,1.213857701963945,-5.929992565774255,3.9570064518357,0.0,0.0
2.845691382765531,-0.21354470232397701,0.41741879935940873,1.0997335734654257,-5.706206424925965,1.5213253733174823,0.0,0.0
2.8657314629258517,-0.2042097541463224,0.46674740888273053,0.9901745709218337,-5.477950127179599,-0.889700103119893,0.0,0.0
2.885771543086172,-0.19486444163189542,0.46726562572134767,0.8855203708328335,-5.232710004450008,-3.043939024184769,0.0,0.0
2.905811623246493,-0.18639536464706913,0.4234538492413155,0.7862472015444616,-4.963658464418595,-4.899997487777453,0.0,0.0
2.9258517034068134,-0.1795809084688117,0.340722808912871,0.69288515400262,-4.668102377092081,-6.475513615808581,0.0,0.0
2.9458917835671343,-0.17509323574498722,0.22438363619122403,0.60596035295077,-4.346240052592498,-7.795953294880928,0.0,0.0
2.9659318637274548,-0.17350328497963807,0.0794975382674574,0.5259528903730186,-4.000373128887571,-8.880984962796305,0.0,0.0
2.9859719438877756,-0.17528449438223445,-0.08906047012981877,0.4532661332050988,-3.63433785839599,-9.743779649552677,0.0,0.0
3.006012024048096,-0.1808153941639854,-0.27654498908754793,0.3882060652168773,-3.2530033994110767,-9.99999999586215,0.0,0.0
3.0260521042084165,-0.19023013524903354,-0.4707370542524073,0.33075925168505294,-2.872340676591217,-9.999999999999988,0.0,0.0
3.0460921843687374,-0.2035527632768168,-0.6661314013891627,0.28076147447091265,-2.499888860707015,-9.999999636791935,0.0,0.0
3.066132264529058,-0.2207981561245714,-0.862269642387731,0.23804217385666843,-2.135965030712211,-9.999999919443619,0.0,0.0
3.0861723446893787,-0.24197452036257136,-1.0588182118999974,0.20243512060075192,-1.7803526627958246,-9.999999969235304,0.0,0.0
3.106212424849699,-0.2670855341681976,-1.2555506902813114,0.17378737843382755,-1.4323871083462183,-9.999999961933698,0.0,0.0
3.12625250501002,-0.2961320992767045,-1.452328255425344,0.15196650805720305,-1.0910435188312255,-9.999999768079086,0.0,0.0
3.1462925851703405,-0.3291137067354241,-1.6490803729359815,0.13686610335044452,-0.7550202353379267,-9.999999999999964,0.0,0.0
3.1663326653306614,-0.3660294449526712,-1.8457869108623557,0.1284098193504973,-0.42281419999736064,-9.99050387110597,0.0,0.0
3.186372745490982,-0.4068749830576267,-2.0422769052477747,0.1265485573776703,-0.0930630986413502,-9.32911401955805,0.0,0.0
3.2064128256513023,-0.45139257368085867,-2.2258795311615986,0.1308895729431328,0.21705077827312613,-8.533558848991012,0.0,0.0
3.226452905811623,-0.49927296353953005,-2.394019492933568,0.14099547216052488,0.5052949608696036,-7.642819226882188,0.0,0.0
3.2464929859719436,-0.5501706046427655,-2.5448820551617732,0.15640533037161164,0.7704929105543381,-6.665613536217088,0.0,0.0
3.2665330661322645,-0.60370695998976,-2.6768177673497235,0.1766378503455857,1.0116259986987033,-5.60433913805265,0.0,0.0
