time,x,x_dot,theta,theta_dot,u,x_ref,theta_ref
0.0,0.2925226277900226,0.005698229034040561,0.10546009592077044,0.062338553401921404,5.298403656515465,0.0,0.0
0.02004008016032064,0.2946725208613032,0.10749465356402894,0.10429040779858549,-0.05848440610924714,5.0423050802491245,0.0,0.0
0.04008016032064128,0.2987588480754506,0.2043163607073713,0.1008453890104168,-0.17225093940843478,4.7585331115727545,0.0,0.0
0.06012024048096192,0.3046720728544749,0.2956612389512137,0.09526724598246296,-0.27890715139769195,4.439519191414244,0.0,0.0
0.08016032064128256,0.3122895883108691,0.38087577281971124,0.08770482370655241,-0.37812111379552743,4.088328484755924,0.0,0.0
0.1002004008016032,0.3214768290887201,0.45936203889254995,0.07831305036796854,-0.46958866692919354,3.707860793936307,0.0,0.0
0.12024048096192384,0.33208831725052823,0.5305744080904071,0.06725250689608435,-0.5530271735942095,3.300907308951826,0.0,0.0
0.1402805611222445,0.3439686685132041,0.5940175631337945,0.05468905738765204,-0.6281724754216155,2.8701565174523127,0.0,0.0
0.16032064128256512,0.35695356452626403,0.6492448006529951,0.04079351176128181,-0.6947772813185115,2.418223968223779,0.0,0.0
0.18036072144288576,0.37087070533564165,0.6958570404688815,0.02574128455139287,-0.7526113604944472,1.947696613093811,0.0,0.0
0.2004008016032064,0.3855407609707759,0.7335027817567108,0.009712011942676957,-0.8014636304357956,1.461187223326072,0.0,0.0
0.22044088176352705,0.4007783441077398,0.7618791568481965,-0.007110910007532629,-0.8411460975104793,0.9613943732093481,0.0,0.0
0.24048096192384769,0.4163930270140212,0.7807341453140687,-0.0245408996918688,-0.8714994842168085,0.45116349424824775,0.0,0.0
0.2605210420841683,0.43219042550153847,0.7898699243758631,-0.04238890496764719,-0.8924002637889197,-0.0664554491333712,0.0,0.0
0.280561122244489,0.44797337046051444,0.7891472479487989,-0.06046427944574812,-0.9037687239050466,-0.5881580538000115,0.0,0.0
0.3006012024048096,0.46354318379177756,0.7784906665631561,-0.0785758314595688,-0.905577600691034,-1.110347661843739,0.0,0.0
0.32064128256513025,0.478701070288031,0.757894324812672,-0.09653304677580166,-0.8978607658116431,-1.629113831779099,0.0,0.0
0.3406813627254509,0.4932496303474323,0.7274280029700659,-0.11414747509911494,-0.8807214161656637,-2.140231049587326,0.0,0.0
0.3607214428857715,0.5069944904881795,0.6872430070373586,-0.13123425928968924,-0.8543392095287152,-2.6391811575387303,0.0,0.0
0.3807615230460922,0.5197460396947756,0.6375774603298089,-0.14761377552116128,-0.818975811573603,-3.121202139480833,0.0,0.0
0.4008016032064128,0.5313212500023906,0.5787605153807494,-0.16311334293899776,-0.7749783708918245,-3.5813645582101246,0.0,0.0
0.42084168336673344,0.5415455499114932,0.5112149954551292,-0.17756895334034653,-0.7227805200674388,-4.014674995921252,0.0,0.0
0.4408817635270541,0.5502547099104269,0.435457999946688,-0.1908269656203109,-0.6629006139982183,-4.416203306692753,0.0,0.0
0.4609218436873747,0.5572966914528334,0.35209907712032834,-0.2027457068708601,-0.59593706252746,-4.781227527064372,0.0,0.0
0.48096192384769537,0.5625334052084505,0.2618356877808522,-0.2131969226991033,-0.5225607914121597,-5.105387290038956,0.0,0.0
0.501002004008016,0.5658423222996019,0.16544585455756633,-0.22206702403181983,-0.44350506663582734,-5.384834115171936,0.0,0.0
0.5210420841683366,0.5671178843725885,0.06377810364932908,-0.22925808657485763,-0.3595531271518901,-5.616365638998151,0.0,0.0
0.5410821643286573,0.566272665129584,-0.0422609621502245,-0.2346885719192063,-0.2715242672174335,-5.797531228895671,0.0,0.0
0.561122244488978,0.5632382471501091,-0.1517208989737454,-0.23829375518352652,-0.1802591632160115,-5.926698704348278,0.0,0.0
0.5811623246492986,0.557965792568859,-0.2636227290624996,-0.24002586165904877,-0.08660532377611216,-6.003075853377496,0.0,0.0
0.6012024048096192,0.5504263029617951,-0.37697448035320086,-0.2398539323971194,0.00859646309646768,-6.026685439831928,0.0,0.0
0.6212424849699398,0.5406105807823047,-0.49078610897451636,-0.23776345417760605,0.10452391097566738,-5.998297551239682,0.0,0.0
0.6412825651302605,0.5285289200147493,-0.6040830383777709,-0.23375580118121403,0.2003826498196019,-5.919327527283211,0.0,0.0
0.6613226452905812,0.514210565807624,-0.715917710356261,-0.22784754284298406,0.29541291691149907,-5.79171065637602,0.0,0.0
0.6813627254509018,0.49770299069082297,-0.8253787558400536,-0.22006967434206537,0.3888934250459338,-5.617766026931056,0.0,0.0
0.7014028056112224,0.4790710381956088,-0.931597624760708,-0.21046682320835644,0.4801425566854467,-5.400061458889668,0.0,0.0
0.721442885771543,0.45839598351155864,-1.0337527342025083,-0.19909647835880384,0.5685172424776295,-5.141289698597816,0.0,0.0
0.7414829659318637,0.43577455592181397,-1.1310713794872322,-0.18602827760316054,0.6534100377821654,-4.844163561299382,0.0,0.0
0.7615230460921844,0.41131796011121724,-1.2228297905298369,-0.1713433774819768,0.7342450060591862,-4.511334968585507,0.0,0.0
0.781563126252505,0.3851509240720953,-1.3083518019560985,-0.15513391635977944,0.8104730561098681,-4.145340262635145,0.0,0.0
0.8016032064128256,0.3574107911995186,-1.387006643628835,-0.13750256896887011,0.8815673695454661,-3.7485720392155057,0.0,0.0
0.8216432865731462,0.3282466640722258,-1.4582063563646372,-0.11856217885369602,0.9470195057587049,-3.3232761275598315,0.0,0.0
0.8416833667334669,0.2978185979650225,-1.521403305360165,-0.09843544497908602,1.0063366937304998,-2.871571240176943,0.0,0.0
0.8617234468937875,0.2662968337573151,-1.57608821038537,-0.07725463056061939,1.0590407209233315,-2.395488128215988,0.0,0.0
0.8817635270541082,0.23386105286360218,-1.621789044685647,-0.05516125626479525,1.1046687147912069,-1.8970246887006668,0.0,0.0
0.9018036072144289,0.2006996312780911,-1.658071079275554,-0.032305736543468425,1.142775986066341,-1.378213260451098,0.0,0.0
0.9218436873747494,0.1670088658877335,-1.6845382695178788,-0.00884691717327725,1.1729409685095586,-0.8411962204962403,0.0,0.0
0.9418837675350701,0.132992143912126,-1.7008360987803757,0.015048525856762422,1.1947721515019836,-0.288305882713188,0.0,0.0
0.9619238476953907,0.09885902569531885,-1.706655910840357,0.03920686116451641,1.2079167653876997,0.27785543671025803,0.0,0.0
0.9819639278557114,0.06482421210833375,-1.701740679349255,0.06344827820634155,1.2120708520912569,0.8543395109332821,0.0,0.0
1.002004008016032,0.031106370518472266,-1.6858920794930743,0.08758808307287126,1.2069902433264854,1.4377850254497702,0.0,0.0
1.0220440881763526,-0.0020732023623919182,-1.6589786440432093,0.11143812073968164,1.1925018833405188,2.024364017027463,0.0,0.0
1.0420841683366733,-0.0344920964205558,-1.6209447029081938,0.13480841830312607,1.168514878172222,2.6097471598252477,0.0,0.0
1.062124248496994,-0.06592849084919161,-1.5718197214317904,0.15750903092304347,1.1350306309958706,3.189093446795713,0.0,0.0
1.0821643286573146,-0.09616304220471356,-1.5117275677760973,0.17935205955382683,1.0921514315391674,3.757069962587199,0.0,0.0
1.1022044088176353,-0.12498094531033399,-1.4408951552810216,0.20015379759884658,1.0400869022509873,4.3079071859998335,0.0,0.0
1.122244488977956,-0.152174141850267,-1.3596598269966516,0.2197369527994326,0.9791577600293009,4.835494255151529,0.0,0.0
1.1422845691382766,-0.17754363761005568,-1.2684747879894331,0.2379328813676647,0.9097964284116046,5.3335164872097565,0.0,0.0
1.1623246492985972,-0.20090187491505793,-1.1679118652501124,0.2545837640885295,0.8325441360432397,5.79563385812028,0.0,0.0
1.1823647294589177,-0.22207509311596552,-1.0586609100453792,0.26954464958198593,0.7480442746728218,6.215694091583757,0.0,0.0
1.2024048096192383,-0.24090559870636358,-0.9415252795199036,0.2826852891524828,0.657031978524844,6.5879679591465505,0.0,0.0
1.222444889779559,-0.25725385993342953,-0.8174130613532977,0.29389169186494585,0.5603201356231529,6.907388425907197,0.0,0.0
1.2424849699398797,-0.2710003406583636,-0.6873240362467032,0.3030673387332325,0.4587823434143334,7.169770919729074,0.0,0.0
1.2625250501002003,-0.28204699624053375,-0.5523327791085091,0.3101340116391111,0.35333364529393085,7.371990874440259,0.0,0.0
1.282565130260521,-0.2903183706930178,-0.41356872262420374,0.31503221517555896,0.24491017682239463,7.512097874683092,0.0,0.0
1.3026052104208417,-0.2957622580620865,-0.2721943684534346,0.31772119604329957,0.13444904338702945,7.589352965239195,0.0,0.0
1.3226452905811623,-0.2983499192349338,-0.1293830586423658,0.3181785918768132,0.02286979167568047,7.604185523827746,0.0,0.0
1.342685370741483,-0.2980758745793274,0.013702232780322732,0.31639976599401676,-0.08894129413982287,7.558076643919102,0.0,0.0
1.3627254509018036,-0.2949573191416332,0.1559277718847094,0.3123969033628476,-0.20014313155845925,7.453385006274511,0.0,0.0
1.3827655310621243,-0.2890332273373441,0.2962045902144558,0.30619795380389236,-0.3099474779477621,7.293136652438398,0.0,0.0
1.4028056112224447,-0.280363226266839,0.4335000535252547,0.2978455103974839,-0.4176221703204236,7.080801564217889,0.0,0.0
1.4228456913827654,-0.26902632053259906,0.566845286711998,0.2873957049064582,-0.5224902745512837,6.820078006178347,0.0,0.0
1.442885771543086,-0.2551195475205433,0.6953386506027882,0.27491718939887233,-0.6239257753792946,6.514701197075449,0.0,0.0
1.4629258517034067,-0.23875663220707335,0.8181457656734965,0.2604902563115439,-0.7213466543664234,6.168287403623672,0.0,0.0
1.4829659318637274,-0.22006669670330936,0.9344967751881998,0.24420613010191963,-0.8142063104812126,5.784219173409961,0.0,0.0
1.503006012024048,-0.1991930639295015,1.0436816386903922,0.22616644422665655,-0.9019842937631543,5.365572922865004,0.0,0.0
1.5230460921843687,-0.1762921786725138,1.1450442628493858,0.2064828988084322,-0.9841772709112168,4.915086829023464,0.0,0.0
1.5430861723446894,-0.1515326540105103,1.2379762331001745,0.1852770778739074,-1.0602910467262405,4.435164949441788,0.0,0.0
1.56312625250501,-0.1250944374370043,1.3219108286753,0.16268039095651493,-1.1298343458696238,3.927912500514613,0.0,0.0
1.5831663326653307,-0.09716807936358249,1.3963179036710907,0.1388340924220146,-1.1923149267250155,3.395196951430637,0.0,0.0
1.6032064128256511,-0.0679540771611753,1.4607001101203598,0.11388932326803244,-1.2472384576991087,2.8387297284827118,0.0,0.0
1.6232464929859718,-0.03766226051050339,1.514590832533595,0.08800711455284696,-1.2941104357592745,2.260163617426886,0.0,0.0
1.6432865731462925,-0.006511178517717285,1.5575540996393054,0.06135828924679773,-1.3324412653024615,1.66120122222486,0.0,0.0
1.6633266533066131,0.025272554244052267,1.5891866380884776,0.034123200412471764,-1.3617544417162983,1.043709986519623,0.0,0.0
1.6833667334669338,0.05745499691592903,1.6091221335938382,0.00649124839244411,-1.3815976010013826,0.4098392684748903,0.0,0.0
1.7034068136272544,0.08979575024098918,1.6170376662530075,-0.02133987185176527,-1.3915560122104689,-0.23786522620570427,0.0,0.0
1.723446893787575,0.12204899400102004,1.612662188001543,-0.0491652301598483,-1.3912679154041514,-0.8963546979766475,0.0,0.0
1.7434869739478958,0.1539647302190377,1.5957868109008826,-0.0767740493421799,-1.3804409591165805,-1.5619837519750555,0.0,0.0
1.7635270541082164,0.1852902617108322,1.5662765745897256,-0.10395142698307239,-1.358868882044624,-2.2304363838647996,0.0,0.0
1.783567134268537,0.21577192686966437,1.5240832579416081,-0.1304803774485079,-1.3264475232717756,-2.8966785391405687,0.0,0.0
1.8036072144288577,0.24515710068569332,1.4692586908014476,-0.15614416216097546,-1.283189235623378,-3.5549452543688673,0.0,0.0
1.8236472945891782,0.27319645875520343,1.4019679034755061,-0.1807288583816129,-1.2292348110318718,-4.19877115552191,0.0,0.0
1.8436873747494988,0.2996464852370042,1.3225013240900396,-0.20402610023604248,-1.1648620927214794,-4.821073232654279,0.0,0.0
1.8637274549098195,0.32427218732331775,1.231285104315676,-0.22583591093884922,-1.0904905351403376,-5.41429360320339,0.0,0.0
1.8837675350701402,0.34684995818028125,1.1288885428481759,-0.24596953248048042,-1.0066810770815608,-5.9706065362073595,0.0,0.0
1.9038076152304608,0.36717050859960026,1.01602752096595,-0.26425214910793077,-0.9141308313725175,-6.482187628655826,0.0,0.0
1.9238476953907815,0.38504176694619585,0.8935629173297801,-0.28052539505915164,-0.8136622975610444,-6.941534285071397,0.0,0.0
1.9438877755511021,0.40029163038588367,0.7624931719843895,-0.2946495368985427,-0.706207091969551,-7.341812541316574,0.0,0.0
1.9639278557114228,0.41277044288751075,0.6239406250813548,-0.30650523053235623,-0.5927846816906788,-7.677201747666944,0.0,0.0
1.9839679358717435,0.42235307809769884,0.47913176050940376,-0.31599477066690873,-0.47447700672762466,-7.943192775708592,0.0,0.0
2.004008016032064,0.4289405237616497,0.3293722831975422,-0.3230427818636965,-0.352400559839389,-8.136804417099654,0.0,0.0
2.024048096192385,0.4324608953156857,0.17601857770179943,-0.32759633883808614,-0.227677848719482,-8.256687157714207,0.0,0.0
2.0440881763527052,0.43286984797065997,0.020447632748714112,-0.32962454729531393,-0.10141042286138843,-8.303103774543464,0.0,0.0
2.064128256513026,0.43015040149411177,-0.13597232382740912,-0.32911765684968247,0.025344522281572773,-8.277784446740986,0.0,0.0
2.0841683366733466,0.4243122372251497,-0.29190821344810247,-0.3260858140762275,0.15159213867274768,-8.183692225045364,0.0,0.0
2.1042084168336674,0.41539055831231253,-0.4460839456418585,-0.3205575803314549,0.27641168723862897,-8.024719585177502,0.0,0.0
2.124248496993988,0.4034446280064714,-0.5972965152920547,-0.3125783482155632,0.3989616057945883,-7.805361709406638,0.0,0.0
2.1442885771543083,0.3885561076789996,-0.7444260163735903,-0.30220878170235754,0.5184783256602818,-7.530398771550807,0.0,0.0
2.164328657314629,0.37082731134361274,-0.8864398167693444,-0.2895233866142489,0.6342697544054297,-7.204614660953326,0.0,0.0
2.1843687374749496,0.35037947866179275,-1.022391634090999,-0.2746092925837985,0.7457047015225213,-6.832569605364894,0.0,0.0
2.2044088176352705,0.3273511474200608,-1.1514165620865993,-0.25756529893237173,0.8521996825713389,-6.418434795001082,0.0,0.0
2.224448897795591,0.301896682714665,-1.2727232352697866,-0.23850120814147974,0.953204539544599,-5.96588958962085,0.0,0.0
2.244488977955912,0.27418499629441,-1.3855843210127512,-0.21753744390336022,1.0481882119059767,-5.478076787469731,0.0,0.0
2.2645290581162323,0.24439846753162595,-1.4893264381392028,-0.19480492726109605,1.136625832113209,-4.957608653654829,0.0,0.0
2.284569138276553,0.2127320583137698,-1.5833204608928075,-0.17044516452092412,1.217988137008597,-4.4066154406036535,0.0,0.0
2.3046092184368736,0.1793925981355996,-1.6669730089085095,-0.14461048449259267,1.2917340014165724,-3.826828346087141,0.0,0.0
2.3246492985971945,0.1445982027893145,-1.739719767314254,-0.11746435015096188,1.3573067170815396,-3.2196896461169517,0.0,0.0
2.344689378757515,0.10857778008323395,-1.8010211353040282,-0.08918166109384436,1.4141344528558757,-2.586483655926809,0.0,0.0
2.3647294589178354,0.07157056873052832,-1.8503605676352812,-0.05994895848032132,1.461635130676152,-1.9284829256096003,0.0,0.0
2.3847695390781563,0.033825651761838965,-1.8872458484344676,-0.029964443921194007,1.4992257279563657,-1.2471045340022004,0.0,0.0
2.4048096192384767,-0.00439861656295483,-1.9112134162396897,0.0005622714596713735,1.526335769043269,-0.5440714833971926,0.0,0.0
2.4248496993987976,-0.04283533136789751,-1.921835740247134,0.03141076155719725,1.5424245048762937,0.17842594211434903,0.0,0.0
2.444889779559118,-0.08120996395154678,-1.918731629182464,0.06235078196026618,1.5470010201534465,0.9175743671133564,0.0,0.0
2.464929859719439,-0.11924154868335493,-1.9015792365904072,0.0931437075214912,1.539646278061251,1.6697931893804485,0.0,0.0
2.4849699398797593,-0.1566441768823087,-1.8701314099476887,0.12354442637101087,1.5200359424759835,2.430609174458264,0.0,0.0
2.50501002004008,-0.193128835150324,-1.8242329134007655,0.1533036809306764,1.4879627279832763,3.1945582360442204,0.0,0.0
2.5250501002004007,-0.2284056136995667,-1.763838927462135,0.18217082143059835,1.4433570249960976,3.955124874945092,0.0,0.0
2.5450901803607215,-0.2621862953031007,-1.6890340801767019,0.20989691374439112,1.3863046156896381,4.70473236081304,0.0,0.0
2.565130260521042,-0.2941873168416212,-1.6000510769260234,0.23623812179108947,1.3170604023349177,5.43479948827367,0.0,0.0
2.5851703406813624,-0.3241330720470037,-1.4972877602691268,0.26095926522231433,1.2360571715612425,6.13588139566655,0.0,0.0
2.6052104208416833,-0.3517594952312878,-1.381321159214205,0.28383743502897435,1.1439084903330015,6.797911434003513,0.0,0.0
2.6252505010020037,-0.3768178314576788,-1.2529168113195481,0.3046655322102565,1.0414048590641072,7.410550911220129,0.0,0.0
2.6452905811623246,-0.3990784622439341,-1.1130315393127672,0.3232555805567575,0.929502417325051,7.963646119414653,0.0,0.0
2.665330661322645,-0.41833461974753944,-0.9628078751802649,0.3394416532576108,0.8093036350426627,8.44776125749648,0.0,0.0
2.685370741482966,-0.43440579769971477,-0.8035588976087664,0.3530822551689951,0.6820300955692171,8.854738675887381,0.0,0.0
2.7054108216432864,-0.4471406600683959,-0.6367431184340584,0.36406202029095314,0.5489882560979005,9.178214119048953,0.0,0.0
2.7254509018036073,-0.45641926716170067,-0.46393035466523824,0.3722926236510209,0.4115301680033878,9.414009732656718,0.0,0.0
2.7454909819639277,-0.46215448523844876,-0.2867609038374057,0.37771286674910143,0.27101215490402575,9.560341048332068,0.0,0.0
2.7655310621242486,-0.46429251457720633,-0.10690146693787894,0.3802879684002192,0.1287550825558902,9.617804268590154,0.0,0.0
2.785571142284569,-0.4628125512466254,0.07399816652904509,0.3800081662194973,-0.013990109036095794,9.5891520163349,0.0,0.0
2.8056112224448895,-0.45772567415949017,0.2543438543567616,0.37688679348682774,-0.15606863663347803,9.478899134177587,0.0,0.0
2.8256513026052104,-0.44907310936463013,0.4326282397430019,0.37095803311502207,-0.2964380185902824,9.292825440800877,0.0,0.0
2.845691382765531,-0.43692405890624203,0.6074525229194038,0.3622745596497386,-0.4341736732641739,9.03744764211015,0.0,0.0
2.8657314629258517,-0.42137329036926424,0.7775384268488891,0.35090526418252527,-0.5684647733606663,8.719520609748006,0.0,0.0
2.885771543086172,-0.40253867016955225,0.9417310099856001,0.33693322390311825,-0.6986020139703509,8.34560899579987,0.0,0.0
2.905811623246493,-0.3805587959965217,1.0989937086515276,0.32045403665663813,-0.8239593623240072,7.921768115159868,0.0,0.0
2.9258517034068134,-0.3555908419982336,1.2483976999144057,0.30157458875913945,-0.9439723948749337,7.45331890668996,0.0,0.0
2.9458917835671343,-0.3278086948308225,1.3891073583705564,0.28041228649208194,-1.058115113352875,6.944725957837262,0.0,0.0
2.9659318637274548,-0.29740141987165797,1.5203637479582266,0.2570947411231472,-1.1658772684467387,6.399559477433752,0.0,0.0
2.9859719438877756,-0.2645720653239594,1.6414677273849279,0.23175986624511366,-1.266743743901676,5.82052635145863,0.0,0.0
3.006012024048096,-0.22953678584548728,1.7517639739236046,0.20455632064107654,-1.3601772802018564,5.20955523251074,0.0,0.0
3.0260521042084165,-0.19252424677673716,1.8506269534375064,0.17564420929427144,-1.445605567340255,4.567922969431551,0.0,0.0
3.0460921843687374,-0.15377525421076987,1.9374496282983644,0.1451959386940258,-1.5224135300122819,3.8964124443387806,0.0,0.0
3.066132264529058,-0.11354254415110802,2.0116355029830926,0.1133971099101378,-1.5899414391944005,3.195494310128747,0.0,0.0
3.0861723446893787,-0.07209065514552823,2.0725944502789893,0.08044732436584466,-1.6474892772146565,2.4655268231019205,0.0,0.0
3.106212424849699,-0.02969580266195107,2.119742624178858,0.04656077380660534,-1.694327527961966,1.706968857406633,0.0,0.0
3.12625250501002,0.013354330024955473,2.152506634345327,0.011966488963204638,-1.7297142421700349,0.9206013899020138,0.0,0.0
3.1462925851703405,0.05676097046855605,2.1703320221800286,-0.023091867906761085,-1.7529178434982862,0.10775247912253527,0.0,0.0
3.1663326653306614,0.10021488922767482,2.172695937955939,-0.05835676237353299,-1.7632447233385953,-0.7294797421646876,0.0,0.0
3.186372745490982,0.14339736476383552,2.159123776808035,-0.09355816782804684,-1.7600702727256923,-1.5880121660067166,0.0,0.0
