time,x,x_dot,theta,theta_dot,u,x_ref,theta_ref
0.0,1.0958241942238534,-0.012224312049589542,0.14343916796455297,0.039473605811872786,9.999999674666384,0.0,0.0
0.02004008016032064,1.0994356580845603,0.18057319303534705,0.13934769817909937,-0.2045734892726803,9.977049954677982,0.0,0.0
0.04008016032064128,1.1068956840371522,0.37300129762958967,0.1303591185481874,-0.4494289815455982,9.228423346710272,0.0,0.0
0.06012024048096192,1.1179160507184343,0.5510183340640982,0.11684251311275795,-0.6758302717714727,8.419746535328274,0.0,0.0
0.08016032064128256,1.1321866436185002,0.7135296450032929,0.09917187805384599,-0.8835317529455979,7.56648353414735,0.0,0.0
0.1002004008016032,1.1493810475488364,0.8597201965168088,0.07772161320232197,-1.072513242576201,6.67308576437484,0.0,0.0
0.12024048096192384,1.1691578794373065,0.9888415944235088,0.052868070355381866,-1.2426771423470055,5.740360780724161,0.0,0.0
0.1402805611222445,1.191160761673073,1.1001441117883288,0.024992725401215953,-1.3937672477082956,4.767487928353017,0.0,0.0
0.16032064128256512,1.2150177436379528,1.1928490982439888,-0.0055143138526668675,-1.525351962694141,3.7528328304392966,0.0,0.0
0.18036072144288576,1.2403405057853947,1.2661381073720916,-0.03825102041133604,-1.6368353279334587,2.6945881765114885,0.0,0.0
0.2004008016032064,1.2667236074658041,1.3191550840204787,-0.07280080082756936,-1.727489020811666,1.591385585815573,0.0,0.0
0.22044088176352705,1.2937440213327263,1.3510206933461018,-0.1087308453667547,-1.7965022269592672,0.4428938574847108,0.0,0.0
0.24048096192384769,1.3209611823133096,1.3608580490291655,-0.1455917643463044,-1.843045948977484,-0.7495991542010851,0.0,0.0
0.2605210420841683,1.347917760727306,1.3478289206998266,-0.1829187119617307,-1.8663473807713156,-1.982622786205467,0.0,0.0
0.280561122244489,1.3741413485440015,1.3111793908347675,-0.22023409780188496,-1.8657692920077131,-3.2499755335207308,0.0,0.0
0.3006012024048096,1.3991472284523645,1.2502939954181491,-0.2570518844080243,-1.840889330306967,-4.5421889400373985,0.0,0.0
0.32064128256513025,1.4224423803598432,1.1647575953739362,-0.29288338258918667,-1.7915749090581203,-5.846012912599721,0.0,0.0
0.3406813627254509,1.4435308664352466,1.0544243037701753,-0.32724439451886417,-1.7180505964838753,-7.143964346852038,0.0,0.0
0.3607214428857715,1.4619207132774785,0.9194923421115886,-0.35966351673968805,-1.620956111041194,-8.414059255545567,0.0,0.0
0.3807615230460922,1.4771323489917367,0.7605817857129116,-0.38969137279641974,-1.501392802836585,-9.629950208745903,0.0,0.0
0.4008016032064128,1.4887085147492534,0.578808287875833,-0.4169104553832884,-1.3609541293434324,-9.999999978687116,0.0,0.0
0.42084168336673344,1.4965190639644717,0.39052746076091993,-0.4413477035599792,-1.2218624088345398,-9.999999999856627,0.0,0.0
0.4408817635270541,1.5005757015839667,0.20283188097475127,-0.4632069547942568,-1.092962561713879,-9.999999999999945,0.0,0.0
0.4609218436873747,1.5008888921972026,0.015659530661791182,-0.4826715336221036,-0.9732289413923415,-9.99999999999959,0.0,0.0
0.48096192384769537,1.4974679108633742,-0.17104906669141515,-0.499905332422243,-0.8616899400069711,-9.999999999999998,0.0,0.0
0.501002004008016,1.4903209094363024,-0.35735007135358543,-0.5150538791263725,-0.7574273352064738,-9.999999999999998,0.0,0.0
0.5210420841683366,1.4794549894373024,-0.5432959999499953,-0.5282453560145067,-0.6595738444067146,-10.0,0.0,0.0
0.5410821643286573,1.4648762754405185,-0.7289356998391922,-0.5395915458221817,-0.5673094903837499,-10.0,0.0,0.0
0.561122244488978,1.4465899850096775,-0.9143145215420532,-0.5491886899585623,-0.47985720681903044,-10.0,0.0,0.0
0.5811623246492986,1.4246004926766493,-1.099474616651411,-0.5571182495932095,-0.3964779817323641,-9.999999999999925,0.0,0.0
0.6012024048096192,1.3989113864452718,-1.28445531156888,-0.5634475644027118,-0.31646574047511367,-9.999999999990626,0.0,0.0
0.6212424849699398,1.36952551596457,-1.4692935240350902,-0.5682304064016628,-0.23914209994754748,-10.0,0.0,0.0
0.6412825651302605,1.3364450319383607,-1.6540242013104676,-0.571507427909782,-0.16385107540596053,-9.999999999999952,0.0,0.0
0.6613226452905812,1.2996714165935181,-1.8386807672421281,-0.5733065036216372,-0.0899537855927556,-10.0,0.0,0.0
0.6813627254509018,1.2592055051684103,-2.023295571255393,-0.5736429671647025,-0.016823177153266936,-10.0,0.0,0.0
0.7014028056112224,1.2150474984446675,-2.2079003361871457,-0.5725197426182651,0.056161227321869206,-9.999999999999323,0.0,0.0
0.721442885771543,1.1671969663581145,-2.3925266043276494,-0.5699273713440565,0.12961856371043418,-10.0,0.0,0.0
0.7414829659318637,1.1156528427110937,-2.5772061823510475,-0.5658439342492624,0.2041718547397039,-10.0,0.0,0.0
0.7615230460921844,1.0604134109876933,-2.7619715861700165,-0.560234869350156,0.2804532449553192,-10.0,0.0,0.0
0.781563126252505,1.001476281263775,-2.9468564861959137,-0.5530526843133481,0.35910925184039233,-10.0,0.0,0.0
0.8016032064128256,0.9388383582247017,-3.131896151953663,-0.5442365636117136,0.4408060350817281,-10.0,0.0,0.0
0.8216432865731462,0.8724958003786574,-3.317127892302217,-0.5337118701507415,0.5262346730486009,-9.999999999999847,0.0,0.0
0.8416833667334669,0.802443970712327,-3.5025914833165213,-0.521389541834856,0.6161164157942756,-9.999999999996906,0.0,0.0
0.8617234468937875,0.7286773793183204,-3.688329569700327,-0.5071653847320978,0.7112078551379074,-10.0,0.0,0.0
0.8817635270541082,0.6511896189838944,-3.8743880167213014,-0.49091926650057616,0.8123059115760843,-10.0,0.0,0.0
0.9018036072144289,0.5699732954411317,-4.06081617713813,-0.4725142168854666,0.9202524807554782,-10.0,0.0,0.0
0.9218436873747494,0.4850199550375885,-4.247667020177162,-0.45179544681451944,1.0359385035473558,-9.999999999991179,0.0,0.0
0.9418837675350701,0.39632001412330664,-4.434997045714092,-0.42858930448633936,1.1603071164090049,-9.999999999966622,0.0,0.0
0.9619238476953907,0.30386269663345,-4.622865874492833,-0.4027021966032625,1.2943553941538435,-9.99999999999914,0.0,0.0
0.9819639278557114,0.2076359893883711,-4.811335362253945,-0.3739195164905875,1.4391340056337505,-10.0,0.0,0.0
1.002004008016032,0.10762662879222215,-5.000468029807448,-0.34200463941024734,1.5957438540170084,-10.0,0.0,0.0
1.0220440881763526,0.0038201381781754196,-5.190324530702337,-0.30669807022521356,1.7653284592516882,-9.999999999964786,0.0,0.0
1.0420841683366733,-0.1037990576838718,-5.380959793102361,-0.267716861037188,1.949060459401278,-9.99999999840671,0.0,0.0
1.062124248496994,-0.21524740521166374,-5.5724173763895966,-0.2247544575677924,2.148120173469781,-9.999999999994793,0.0,0.0
1.0821643286573146,-0.33054183494376077,-5.764721486604852,-0.17748118308795868,2.363663723991685,-10.0,0.0,0.0
1.1022044088176353,-0.4496991553350479,-5.957866019564357,-0.1255456260010078,2.596777854347544,-9.999999999999968,0.0,0.0
1.122244488977956,-0.5727351551404005,-6.151799990267632,-0.06857725662824596,2.8484184686380924,-9.999999999992616,0.0,0.0
1.1422845691382766,-0.6996633316682562,-6.346408826392785,-0.006190649690138765,3.1193303469053597,-9.14603863483647,0.0,0.0
1.1623246492985972,-0.830159921748617,-6.524829504018036,0.06150875372428866,3.3849701707213713,-4.7547466477485765,0.0,0.0
1.1823647294589177,-0.9625152683162131,-6.61776732837981,0.13235049881771987,3.5420872546715607,-0.9613279832832973,0.0,0.0
1.2024048096192383,-1.0952504571192367,-6.636759440151181,0.20453213788753424,3.609081953490718,2.3943243509068877,0.0,0.0
1.222444889779559,-1.2270594980156537,-6.590452044820855,0.2765478968919515,3.6007879502208597,5.3779199170322585,0.0,0.0
1.2424849699398797,-1.3567874951008962,-6.486399854262125,0.347167024679489,3.5309563893768767,8.040990481134578,0.0,0.0
1.2625250501002003,-1.4834128903540582,-6.331269762658094,0.41541196679952497,3.4122471060017965,9.999999999999998,0.0,0.0
1.282565130260521,-1.606195940776675,-6.1391525211308435,0.4807583629234219,3.2673198061948456,10.0,0.0,0.0
1.3026052104208417,-1.7251576931947716,-5.948087620904831,0.5437432519002323,3.149244448840519,10.0,0.0,0.0
1.3226452905811623,-1.8403183671941026,-5.758033699966547,0.6048919456421195,3.0574346870943545,9.999999999999998,0.0,0.0
1.342685370741483,-1.951696583336559,-5.568910807122816,0.6647182963086778,2.9913175333279187,10.0,0.0,0.0
1.3627254509018036,-2.0593087891738118,-5.380610291862651,0.7237258759378018,2.9503789814561996,10.0,0.0,0.0
1.3827655310621243,-2.1631688039790924,-5.193000740264033,0.7824097622286089,2.934194314540354,10.0,0.0,0.0
1.4028056112224447,-2.263287419159135,-5.005930759002133,0.8412586946894199,2.942446623040549,9.999999999999998,0.0,0.0
1.4228456913827654,-2.3596720048838513,-4.819229286235806,0.9007574229985869,2.9749364154583438,9.999999999999998,0.0,0.0
1.442885771543086,-2.452326084607823,-4.632703986198587,0.9613891139857939,3.0315845493603493,10.0,0.0,0.0
1.4629258517034067,-2.5412488484551585,-4.446138192366763,1.023637716511205,3.1124301262705574,10.0,0.0,0.0
1.4829659318637274,-2.6264345848158888,-4.2592868180365056,1.0879902063837084,3.217624493625168,9.999999999999874,0.0,0.0
1.503006012024048,-2.7078720180892377,-4.07187166366744,1.1549386474624883,3.347422053939001,9.999999999971466,0.0,0.0
1.5230460921843687,-2.78554355064465,-3.8835766277706174,1.2249820101679292,3.5021681352720457,9.999999999999993,0.0,0.0
1.5430861723446894,-2.859424420360498,-3.6940434857924163,1.2986276828147776,3.682283632342417,10.0,0.0,0.0
1.56312625250501,-2.92948180352763,-3.5028691583565927,1.3763925896781921,3.8882453431707296,10.0,0.0,0.0
1.5831663326653307,-2.995673918989459,-3.3096057730914334,1.4588037836925334,4.120559700717065,9.999999999999815,0.0,0.0
1.6032064128256511,-3.057949226372786,-3.113765369166358,1.5463982968328602,4.379725657016338,10.0,0.0,0.0
1.6232464929859718,-3.116245863262026,-2.9148318444620003,1.6397218861741132,4.666179467062643,10.0,0.0,0.0
1.6432865731462925,-3.170491538142191,-2.712283744008249,1.7393260792062213,4.9802096516054,9.999999999999996,0.0,0.0
1.6633266533066131,-3.2206041930025475,-2.505632743017836,1.8457625632842918,5.32182420390352,9.999999999999996,0.0,0.0
1.6833667334669338,-3.2664938746289782,-2.2944840813215315,1.9595734497612094,5.690544323845877,9.999999999999995,0.0,0.0
1.7034068136272544,-3.3080664017515917,-2.0786263561306733,2.081275271337016,6.085091078790332,9.999999999999766,0.0,0.0
1.723446893787575,-3.345229560457367,-1.8581579352887572,2.211333826548833,6.502927760590847,9.999999999999314,0.0,0.0
1.7434869739478958,-3.377902632281998,-1.633653591231551,2.35012645014333,6.93963117972484,9.999999999966027,0.0,0.0
1.7635270541082164,-3.4060299089509964,-1.406363833449909,2.4978886065366233,7.388107819664656,9.999999999952,0.0,0.0
1.783567134268537,-3.4295982197006376,-1.178415537482057,2.6546440230121156,7.837770823774609,9.999999999999876,0.0,0.0
1.8036072144288577,-3.4486570742774014,-0.9529427288381902,2.820123371495971,8.273967424192769,-3.9082473541084255,0.0,0.0
1.8236472945891782,-3.4687256972953873,-1.0034311508992952,2.9860232469834287,8.294993774372893,9.999999999990846,0.0,0.0
1.8436873747494988,-3.484647450813741,-0.7960876759176696,3.158974962410507,8.647585771353926,-9.700657507671442,0.0,0.0
1.8637274549098195,-3.5043849116064756,-0.986873039636744,3.326105417034915,8.356522731220414,9.999999998579097,0.0,0.0
1.8837675350701402,-3.5205306231985296,-0.8072855796026992,3.4974506209947664,8.56726019799256,-9.999999999997334,0.0,0.0
1.9038076152304608,-3.5411315918054425,-1.0300484303456447,3.6604882674380246,8.151882322162912,8.416915311915856,0.0,0.0
1.9238476953907815,-3.5592589877454577,-0.9063697970007536,3.823831659586628,8.167169607430179,-5.1877359390487,0.0,0.0
1.9438877755511021,-3.5802873289748294,-1.0514170614685856,3.9800945371698746,7.813143879162329,9.99999999999973,0.0,0.0
1.9639278557114228,-3.5985533506282446,-0.9133010826707507,4.13475603625848,7.733074954430279,5.547182915996335,0.0,0.0
1.9839679358717435,-3.615814872454182,-0.8630760912968762,4.285316833454423,7.52803985979711,9.999999999999998,0.0,0.0
2.004008016032064,-3.6304478433744807,-0.7316485460149211,4.432161229999422,7.3422198272499495,9.999999998497978,0.0,0.0
2.024048096192385,-3.642443613773339,-0.5997885199429231,4.574451910585016,7.114534029279719,9.999999999995579,0.0,0.0
2.0440881763527052,-3.6517474913716383,-0.4651938799149636,4.711476935059928,6.851251223745593,9.999999999976907,0.0,0.0
2.064128256513026,-3.6582686964939097,-0.3260602561135734,4.842629439190231,6.5576252065151435,10.0,0.0,0.0
2.0841683366733466,-3.661891051286854,-0.18111773964722622,4.967391015465744,6.238078813775646,9.999999999999968,0.0,0.0
2.1042084168336674,-3.662483348579316,-0.02961486462309787,5.085320518537704,5.896475153597987,10.0,0.0,0.0
2.124248496993988,-3.6599087071497203,0.12873207147978658,5.196047897954048,5.536368970817201,9.99999999994084,0.0,0.0
2.1442885771543083,-3.6540324662308605,0.29381204594298965,5.299271434721878,5.161176838391512,10.0,0.0,0.0
2.164328657314629,-3.6447283518457017,0.4652057192579343,5.394756332892148,4.774244908513488,10.0,0.0,0.0
2.1843687374749496,-3.6318828062905197,0.6422772777591027,5.482332801874724,4.378823449128844,9.999999999998362,0.0,0.0
2.2044088176352705,-3.615397527465132,0.8242639412693797,5.561892337071223,3.977976759824905,9.99999999998639,0.0,0.0
2.224448897795591,-3.5951904078658026,1.0103559799664914,5.63338163315866,3.574464804371836,9.999999999999938,0.0,0.0
2.244488977955912,-3.571195172691752,1.1997617587025278,5.696794238989302,3.170630291532097,9.999999999996216,0.0,0.0
2.2645290581162323,-3.5433600753575694,1.3917548667091288,5.752160544976827,2.7683152993762756,9.999999999964398,0.0,0.0
2.284569138276553,-3.5116460129499263,1.5857031203821497,5.79953693040153,2.3688192712351417,9.999999999987152,0.0,0.0
2.3046092184368736,-3.4760243839961427,1.78108144768918,5.838994915093728,1.9728992346099399,10.0,0.0,0.0
2.3246492985971945,-3.436474944562155,1.9774719716993676,5.870611029342088,1.5808057124179906,10.0,0.0,0.0
2.344689378757515,-3.3929838450546157,2.174554975376969,5.894457919212449,1.1923444935180694,10.0,0.0,0.0
2.3647294589178354,-3.3455419634880292,2.372094078329333,5.910597007427747,0.8069544107648912,10.0,0.0,0.0
2.3847695390781563,-3.29414359927834,2.569918210484464,5.919072872082615,0.4237932327433672,9.999999999999996,0.0,0.0
2.4048096192384767,-3.2387855569767194,2.7679021150810317,5.9199094017429275,0.04182648301563435,10.0,0.0,0.0
2.4248496993987976,-3.1794666299675116,2.965946350460385,5.913107733475888,-0.3400834133519837,9.999999999981624,0.0,0.0
2.444889779559118,-3.1161874861034575,3.163957193202715,5.898645967721913,-0.7230882876987381,10.0,0.0,0.0
2.464929859719439,-3.0489509557413954,3.3618265181030975,5.8764806637984215,-1.108265196174598,9.999999999979476,0.0,0.0
2.4849699398797593,-2.977762722614889,3.559411656325317,5.846550133756726,-1.4965265020847809,9.99999999999748,0.0,0.0
2.50501002004008,-2.902632414315516,3.756515414968636,5.8087795514636404,-1.8885291146542706,9.99999999999998,0.0,0.0
2.5250501002004007,-2.823575076760507,3.9528668777504716,5.763087859842411,-2.2845845810614684,9.999999999999998,0.0,0.0
2.5450901803607215,-2.740612991162893,4.148104279880686,5.7093963764015525,-2.6845741720429315,10.0,0.0,0.0
2.565130260521042,-2.653777749176472,4.34176209932107,5.647638856587667,-3.087875990694285,9.999999999999574,0.0,0.0
2.5851703406813624,-2.5631124413332294,4.533265392162116,5.5777725811769185,-3.493313770537436,9.999999999997243,0.0,0.0
2.6052104208416833,-2.4686737397608405,4.721935078619436,5.4997898155156575,-3.8991382830630497,9.999999999999998,0.0,0.0
2.6252505010020037,-2.370533579273149,4.9070080243845675,5.413728801262864,-4.303050712639688,9.999999999989111,0.0,0.0
2.6452905811623246,-2.2687800788997046,5.0876750186722255,5.3196833672633845,-4.7022716999739504,9.034048706522297,0.0,0.0
2.665330661322645,-2.16387654594972,5.245176647499231,5.218117668643682,-5.078284930985138,5.602542722764592,0.0,0.0
2.685370741482966,-2.0572044381093804,5.333605392016967,5.11012686812913,-5.399540025727644,2.180710169150352,0.0,0.0
2.7054108216432864,-1.9501285462472218,5.353794593107935,4.996483996834285,-5.682143564742222,-1.0181781974596835,0.0,0.0
2.7254509018036073,-1.8439191749737565,5.310468563673259,4.877564433241066,-5.945978179660949,-3.7197730586550337,0.0,0.0
2.7454909819639277,-1.7396567768901066,5.213119904182494,4.753328419805409,-6.211800671782835,-5.844169033174255,0.0,0.0
2.7655310621242486,-1.6382099138903108,5.072343149989794,4.623393746243309,-6.496733678104999,-7.348727765912247,0.0,0.0
2.785571142284569,-1.5402251978351262,4.899235802759225,4.487144726998807,-6.812450962225133,-8.26383541251784,0.0,0.0
2.8056112224448895,-1.446139408738216,4.7042894548455125,4.343862429243649,-7.164114887757879,-8.661439011849236,0.0,0.0
2.8256513026052104,-1.3562001820907723,4.496961332372188,4.19285910070895,-7.550166426734973,-8.641447359781068,0.0,0.0
2.845691382765531,-1.2704891234624947,4.285552931413879,4.033608026067766,-7.962553732059197,-8.318724378831796,0.0,0.0
2.8657314629258517,-1.1889426885324283,4.077321746503315,3.865863523322959,-8.387225137240355,-7.813073639540392,0.0,0.0
2.885771543086172,-1.1113692514473121,3.878671854255805,3.689764655532124,-8.804943389541746,-7.240114525221909,0.0,0.0
2.905811623246493,-1.0374640264470572,3.6952612500127486,3.5059102920212957,-9.192718175541415,-6.699587726607057,0.0,0.0
2.9258517034068134,-0.9668257510538824,3.5319137696587384,3.3153861883017455,-9.526205185977512,-6.265018728842124,0.0,0.0
2.9458917835671343,-0.8989811358478418,3.392230760302028,3.1197211639953437,-9.783251215320078,-5.9781929026897025,0.0,0.0
2.9659318637274548,-0.8334221792295576,3.277947830914206,2.9207591265429125,-9.948101872621558,-5.85006947839681,0.0,0.0
2.9859719438877756,-0.7696555660738974,3.188330657783013,2.720462670681306,-10.014822793080326,-5.86832027558677,0.0,0.0
3.006012024048096,-0.707255318489536,3.1200123792180667,2.5206991041441493,-9.988178326857835,-6.006309992929592,0.0,0.0
3.0260521042084165,-0.6459048664872079,3.0675226001164067,2.323074171569629,-9.88124662872603,-6.226391783267563,0.0,0.0
3.0460921843687374,-0.5854165506549774,3.024415791611524,2.1288566478706112,-9.710876184950882,-6.474756750847942,0.0,0.0
3.066132264529058,-0.5257234636237713,2.984654351560305,1.9389926519060592,-9.493199798227607,-6.670487575640958,0.0,0.0
3.0861723446893787,-0.4668447594581435,2.94393520828139,1.754171729862786,-9.241046102163661,-6.699998476844971,0.0,0.0
3.106212424849699,-0.4088298464259767,2.900745651608341,1.574892491252845,-8.963961930497044,-6.46235208094383,0.0,0.0
3.12625250501002,-0.35170284217061876,2.8563502127678966,1.401484078532512,-8.670420636016656,-6.075884887019255,0.0,0.0
3.1462925851703405,-0.2954840774400587,2.810938236528002,1.2340973870968868,-8.369334571781256,-6.1165214113410995,0.0,0.0
3.1663326653306614,-0.24037902542508777,2.7552526007485483,1.0728086359648457,-8.064437556602059,-7.055391616751315,0.0,0.0
3.186372745490982,-0.1869386979438342,2.672016374062679,0.9178745159342272,-7.74670600153092,-8.619646081496903,0.0,0.0
3.2064128256513023,-0.13595681706317153,2.5490940440331338,0.7698469305345406,-7.401379269984334,-9.999999999999977,0.0,0.0
3.226452905811623,-0.08816355491461048,2.3896631074280523,0.6293414975185221,-7.0252716508009225,-9.999999999999996,0.0,0.0
3.2464929859719436,-0.0437563492087308,2.2203602852939834,0.4963983894803071,-6.64715540191075,-9.999999999999998,0.0,0.0
3.2665330661322645,-0.0029019301567110717,2.0427209526009866,0.37093699130318497,-6.273069908856107,-10.0,0.0,0.0
3.286573146292585,0.034267119288871245,1.8584524722791158,0.25275455920225437,-5.909121605046531,-9.999999999999998,0.0,0.0
3.306613226452906,0.06765218039009896,1.6692530550613855,0.14153384004856845,-5.561035957684295,-10.0,0.0,0.0
3.3266533066132262,0.09718567083503535,1.4766745222468196,0.036858060606329804,-5.233788972111932,-10.0,0.0,0.0
3.346693386773547,0.12282642665758123,1.2820377911272935,-0.061769686403284424,-4.931387350480711,-10.0,0.0,0.0
