time,x,x_dot,theta,theta_dot,u,x_ref,theta_ref
0.0,-0.4492005108576218,0.019154698005868,0.0055202180216040175,0.0388983808014805,-2.1454081399224076,0.0,0.0
0.02004008016032064,-0.44965619131467444,-0.02278402285263296,0.007587980688787238,0.10338813335916103,-1.9076339677857088,0.0,0.0
0.04008016032064128,-0.45085845046087913,-0.06011295731023465,0.010819468720219808,0.1615744015716285,-1.6560724199764771,0.0,0.0
0.06012024048096192,-0.45271004218497274,-0.0925795862046802,0.015087867775934174,0.21341995278571832,-1.3909927386334875,0.0,0.0
0.08016032064128256,-0.4551087371066075,-0.11993474608173821,0.020264973576142774,0.25885529001042995,-1.1146989764687918,0.0,0.0
0.1002004008016032,-0.4579481840024316,-0.14197234479120582,0.026221734194629025,0.29783803092431255,-0.8294351375986657,0.0,0.0
0.12024048096192384,-0.4611187487621539,-0.15852823798611546,0.032828760579029184,0.33035131922000804,-0.5374811614153696,0.0,0.0
0.1402805611222445,-0.46450836871397705,-0.1694809975911568,0.039956865473279916,0.35640524471253665,-0.2411568978963814,0.0,0.0
0.16032064128256512,-0.4680034239982163,-0.17475276421196412,0.04747763557418437,0.3760385050452227,0.057177037195938196,0.0,0.0
0.18036072144288576,-0.4714896262349155,-0.17431011183495948,0.055264038676095015,0.38932015509553225,0.3551210330506563,0.0,0.0
0.2004008016032064,-0.4748529235414743,-0.16816486532793953,0.06319106511146956,0.3963513217687271,0.6502418572118098,0.0,0.0
0.22044088176352705,-0.47798041944296044,-0.15637479507430646,0.07113640017710118,0.3972667532815808,0.9400824160733028,0.0,0.0
0.24048096192384769,-0.4807613014601778,-0.13904410086086783,0.07898112158971844,0.3922360706308628,1.222176405427401,0.0,0.0
0.2605210420841683,-0.48308777326914804,-0.1163235904485099,0.08661041350623548,0.3814645958258516,1.4940680204239392,0.0,0.0
0.280561122244489,-0.48485598242707356,-0.08841045789627686,0.09391428643647845,0.3651936465121483,1.7533365213791643,0.0,0.0
0.3006012024048096,-0.48596693389165097,-0.0555475732288711,0.10078829062152321,0.3437002092522378,1.9976250581320647,0.0,0.0
0.32064128256513025,-0.4863273780642292,-0.018022208628913093,0.1071342092799078,0.31729593291922914,2.2246727667614676,0.0,0.0
0.3406813627254509,-0.48585066099870894,0.023835853276014167,0.1128607176374861,0.2863254178789153,2.4323488009233443,0.0,0.0
0.3607214428857715,-0.4844575238562068,0.06965685712510948,0.11788399391488953,0.2511638138701713,2.61868668225621,0.0,0.0
0.3807615230460922,-0.482076838739713,0.11903425582468656,0.12212826946107151,0.21221377730909874,2.781917186359581,0.0,0.0
0.4008016032064128,-0.4786462687607434,0.1715284989484821,0.12552630694914188,0.1699018744035186,2.9204979526200003,0.0,0.0
0.42084168336673344,-0.47411284156718364,0.22667135967798657,0.12801979789202225,0.12467454714401915,3.033138134743701,0.0,0.0
0.4408817635270541,-0.46843342753731976,0.2839707014931931,0.12955967353797448,0.07699378229761139,3.1188166938523363,0.0,0.0
0.4609218436873747,-0.4615751163031805,0.3429155617069626,0.13010632627458918,0.02733263683073487,3.17679335678315,0.0,0.0
0.48096192384769537,-0.45351548804363295,0.402981412977377,0.12962974178242812,-0.023829224608053354,3.2066117793168325,0.0,0.0
0.501002004008016,-0.44424277888919605,0.46363545772184367,0.12810954510797062,-0.07600983372287404,3.2080950143090994,0.0,0.0
0.5210420841683366,-0.4337559425992774,0.5243418144959322,0.12553496635753186,-0.12872893752193781,3.181333928880041,0.0,0.0
0.5410821643286573,-0.42206461321111405,0.5845664694081673,0.12190473367403853,-0.1815116341746665,3.1266696871609394,0.0,0.0
0.561122244488978,-0.4091889754503777,0.6437818880368174,0.11722690242496211,-0.23389156245382067,3.044671771008233,0.0,0.0
0.5811623246492986,-0.3951595512138016,0.7014712118288047,0.1115186300436091,-0.2854136190676506,2.9361132230182516,0.0,0.0
0.6012024048096192,-0.3800169113165614,0.757131994862009,0.10480590573428303,-0.3356362154663036,2.801944856149081,0.0,0.0
0.6212424849699398,-0.3638113219304671,0.8102794693047142,0.0971232433420615,-0.3841331196110766,2.643270091191452,0.0,0.0
0.6412825651302605,-0.34660233476494634,0.8604493582760384,0.0885133442179358,-0.43049495620628503,2.4613218811288067,0.0,0.0
0.6613226452905812,-0.3284583291461949,0.9072002809375743,0.07902673503363314,-0.47433045921513345,2.257442908326678,0.0,0.0
0.6813627254509018,-0.30945601284022606,0.9501158152984402,0.06872138338219384,-0.5152675825719647,2.0330697913493045,0.0,0.0
0.7014028056112224,-0.2896798869183628,0.9888062960931641,0.05766229188209088,-0.5529545750051484,1.789721923108244,0.0,0.0
0.721442885771543,-0.26922167822198,1.0229104348191382,0.0459210694123255,-0.5870611234882688,1.5289949241957217,0.0,0.0
0.7414829659318637,-0.24817974129196602,1.052096846500699,0.03357547636089098,-0.6172796525717261,1.2525584172309943,0.0,0.0
0.7615230460921844,-0.2266584300903976,1.0760655600784212,0.020708939467485026,-0.6433268446702975,0.9621575960948339,0.0,0.0
0.781563126252505,-0.20476743854064042,1.0945495774878595,0.007410031046276015,-0.6649454210604505,0.6596183754428355,0.0,0.0
0.8016032064128256,-0.1826211077169793,1.1073165411830566,-0.006228093176910338,-0.6819062111593176,0.34685356455957866,0.0,0.0
0.8216432865731462,-0.16033769732876244,1.114170519410843,-0.02010830240704448,-0.6940104615067071,0.025870903303191195,0.0,0.0
0.8416833667334669,-0.13803861863036976,1.114953934919634,-0.03413014967754881,-0.7010923635252165,-0.30121974400105045,0.0,0.0
0.8617234468937875,-0.11584762641495389,1.1095496107707936,-0.04819058384782769,-0.7030217085139442,-0.6322008013314526,0.0,0.0
0.8817635270541082,-0.09388996854521472,1.0978828934869578,-0.06218471523960879,-0.6997065695890549,-0.9647444119208599,0.0,0.0
0.9018036072144289,-0.07229149277589518,1.0799237884659774,-0.07600663299601469,-0.6910958878202947,-1.2964141478162927,0.0,0.0
0.9218436873747494,-0.05117771235757233,1.0556890209161425,-0.08955026952483014,-0.6771818264407723,-1.624672131501866,0.0,0.0
0.9418837675350701,-0.03067283401916557,1.025243916920338,-0.10271030454526814,-0.6580017510218997,-1.9468924999706054,0.0,0.0
0.9619238476953907,-0.010898754321512875,0.9887039848826348,-0.1153830984565017,-0.6336396955616781,-2.260381854995021,0.0,0.0
0.9819639278557114,0.008025967056376242,0.9462360688944559,-0.1274676421535393,-0.6042271848518805,-2.56240696884829,0.0,0.0
1.002004008016032,0.025987145933487343,0.898058943855555,-0.1388665081988085,-0.5699433022634598,-2.8502295557335335,0.0,0.0
1.0220440881763526,0.04287601050926369,0.8444432287888173,-0.1494867865762248,-0.5310139188708155,-3.1211473906799876,0.0,0.0
1.0420841683366733,0.05859022072358573,0.7857105107161018,-0.15924098725396052,-0.48771003388678624,-3.372540490115054,0.0,0.0
1.062124248496994,0.07303485266766094,0.7222315972037601,-0.1680478915836544,-0.44034521648469443,-3.60192050939107,0.0,0.0
1.0821643286573146,0.0861233296857833,0.654423850906118,-0.17583333525218775,-0.3892721834266666,-3.806981024607802,0.0,0.0
1.1022044088176353,0.09777828174020131,0.5827476027209001,-0.18253090711222006,-0.3348785930016159,-3.9856460199700336,0.0,0.0
1.122244488977956,0.1079323155179105,0.5077016888854593,-0.18808255072043753,-0.27758218041087324,-4.136113764785791,0.0,0.0
1.1422845691382766,0.11652867967180114,0.4298182076945325,-0.19243905870457662,-0.21782539920695437,-4.256893385568305,0.0,0.0
1.1623246492985972,0.12352181244937376,0.3496566388786311,-0.19556045398049762,-0.15606976379605075,-4.346831836518578,0.0,0.0
1.1823647294589177,0.12887776261229478,0.26779750814605074,-0.19741625609669883,-0.09279010581005966,-4.405129623206269,0.0,0.0
1.2024048096192383,0.1325744787426945,0.1848358065199864,-0.19798563529164048,-0.02846895974708291,-4.431344475830399,0.0,0.0
1.222444889779559,0.13460196645562145,0.101374385646347,-0.19725746088286417,0.03640872043881538,-4.4253831033483,0.0,0.0
1.2424849699398797,0.1349623173503002,0.018017544733937865,-0.19523025405409364,0.10136034143852647,-4.387482076033642,0.0,0.0
1.2625250501002003,0.13366961740583055,-0.06463499722348279,-0.19191205770553488,0.16590981742793853,-4.3181796736978395,0.0,0.0
1.282565130260521,0.1307497456797719,-0.1459935863029329,-0.18732023760181404,0.22959100518604203,-4.218281115735229,0.0,0.0
1.3026052104208417,0.12624007640058527,-0.22548346395933183,-0.18148122950765702,0.2919504047078513,-4.088819908719509,0.0,0.0
1.3226452905811623,0.12018909875359474,-0.3025488823495267,-0.17443024636157287,0.352549157304208,-3.9310180991219505,0.0,0.0
1.342685370741483,0.1126559688399504,-0.37665649568221715,-0.16621095791275617,0.4109644224408355,-3.7462480300888505,0.0,0.0
1.3627254509018036,0.10371000752164952,-0.447298065915044,-0.15687515281924327,0.4667902546756453,-3.535997823913189,0.0,0.0
1.3827655310621243,0.09343015630369507,-0.5139925608977225,-0.14648239020756249,0.5196381305840398,-3.3018423112357973,0.0,0.0
1.4028056112224447,0.08190440124138436,-0.5762877531155353,-0.1350996443800301,0.5691372913766187,-3.0454205676289674,0.0,0.0
1.4228456913827654,0.0692291723113313,-0.6337614465026533,-0.12280094298105303,0.6149350699488538,-2.7684206543503915,0.0,0.0
1.442885771543086,0.05550872296360973,-0.6860224673860786,-0.10966699573752564,0.6566973621763695,-2.47257163328941,0.0,0.0
1.4629258517034067,0.04085449187858903,-0.732711554251035,-0.09578480808209658,0.6941093827714531,-2.159642462251591,0.0,0.0
1.4829659318637274,0.025384446459951433,-0.7735022709318797,-0.0812472717281639,0.7268768176966343,-1.831446987398583,0.0,0.0
1.503006012024048,0.009222405449852603,-0.8081020505049414,-0.0661527227295264,0.7547274499318752,-1.4898539362442533,0.0,0.0
1.5230460921843687,-0.00750266363250485,-0.8362534541178726,-0.05060445682229739,0.7774132953614502,-1.1368005719243977,0.0,0.0
1.5430861723446894,-0.0246573776664197,-0.8577357016957423,-0.03471019196634258,0.7947132427977407,-0.7743084898800809,0.0,0.0
1.56312625250501,-0.04210470769174061,-0.8723665012660454,-0.01858146898915993,0.8064361488591322,-0.40449991467664365,0.0,0.0
1.5831663326653307,-0.059704791127350054,-0.8800041717804721,-0.002332983053681636,0.8124242967739147,-0.029612782570038076,0.0,0.0
1.6032064128256511,-0.07731579156583372,-0.8805500219241832,0.013918158753712058,0.8125570903696847,0.34798712491202044,0.0,0.0
1.6232464929859718,-0.09479480987813547,-0.8739509156150876,0.030053255206334888,0.8067548226311414,0.7257986956620726,0.0,0.0
1.6432865731462925,-0.11199884837494242,-0.8602019248403472,0.045952901889398066,0.794982334153159,1.1011842479159144,0.0,0.0
1.6633266533066131,-0.12878582724269305,-0.8393489433875322,0.06149794913284817,0.7772523621725053,1.471375954669155,0.0,0.0
1.6833667334669338,-0.14501564948823184,-0.811491112276939,0.07657051666919348,0.7536283768172656,1.8334910723355473,0.0,0.0
1.7034068136272544,-0.16055130730530845,-0.7767828908538298,0.09105505083944944,0.7242267085127979,2.1845567263478696,0.0,0.0
1.723446893787575,-0.1752600192714487,-0.7354355983070132,0.1048394066277197,0.689217789413513,2.521544496468378,0.0,0.0
1.7434869739478958,-0.18901438428568512,-0.6877182507118209,0.11781593387021634,0.648826362124832,2.8414144145593263,0.0,0.0
1.7635270541082164,-0.20169353489271244,-0.6339575303513661,0.12988254487408893,0.6033305501936296,3.1411672579378846,0.0,0.0
1.783567134268537,-0.21318426986240138,-0.574536748484447,0.14094373958781292,0.5530597356862001,3.4179032385217916,0.0,0.0
1.8036072144288577,-0.22338214387317515,-0.5098937005386889,0.15091156454242455,0.49839124773058097,3.6688844253346744,0.0,0.0
1.8236472945891782,-0.23219249113896032,-0.44051736328925845,0.15970648312970542,0.43974592936404333,3.891597592733319,0.0,0.0
1.8436873747494988,-0.23953136003179962,-0.3669434446419646,0.16725813742037376,0.37758271453341746,4.08381376696113,0.0,0.0
1.8637274549098195,-0.24532633731220693,-0.28974886402036626,0.1735059855754854,0.31239240775558275,4.243640647466628,0.0,0.0
1.8837675350701402,-0.2495172434967033,-0.2095453092248179,0.1783998037788436,0.24469091016790964,4.36956437166117,0.0,0.0
1.9038076152304608,-0.2520566850381107,-0.1269720770703685,0.18190004721550035,0.1750121718328373,4.460477782073317,0.0,0.0
1.9238476953907815,-0.252910454100346,-0.04268845311176671,0.18397807054360654,0.10390116640530915,4.515693387004565,0.0,0.0
1.9438877755511021,-0.25205777238846944,0.04263408559382935,0.18461621409617118,0.03190717762823267,4.534940462211222,0.0,0.0
1.9639278557114228,-0.24949138128456316,0.12831955519531388,0.18380776723888387,-0.040422342864365274,4.518347062202397,0.0,0.0
1.9839679358717435,-0.2452174859620138,0.2136947661274683,0.18155682448127242,-0.11254713788057233,4.466408925747163,0.0,0.0
2.004008016032064,-0.2392555657709381,0.29809600955378457,0.177878052771956,-0.1839385854658201,4.379948223177126,0.0,0.0
2.024048096192385,-0.2316380666691854,0.38087495508763447,0.17279638972150166,-0.25408315252271685,4.2600657042548455,0.0,0.0
2.0440881763527052,-0.22240999361166308,0.4614036528761163,0.16634669225580415,-0.3224848732848761,4.10809002708574,0.0,0.0
2.064128256513026,-0.21162842154448827,0.5390786033587411,0.15857335351927734,-0.38866693682634035,3.9255279035348796,0.0,0.0
2.0841683366733466,-0.19936194305231716,0.6133239246085553,0.14952990294758464,-0.4521725285846346,3.714018252835057,0.0,0.0
2.1042084168336674,-0.18569006895761814,0.6835937047349514,0.13927860062178937,-0.5125651162897633,3.475292907267276,0.0,0.0
2.124248496993988,-0.17070259552262212,0.7493736717498006,0.1278900326483389,-0.569428398672524,3.211145660150146,0.0,0.0
2.1442885771543083,-0.154498948647584,0.8101823437519062,0.11544270973729956,-0.6223661455519671,2.923410674972827,0.0,0.0
2.164328657314629,-0.13718751188641548,0.8655718380584265,0.1020226667088658,-0.671002151421688,2.6139505508914533,0.0,0.0
2.1843687374749496,-0.11888494148666062,0.9151285199877426,0.08772305664091845,-0.7149805033973674,2.2846537048346374,0.0,0.0
2.2044088176352705,-0.09971546824453706,0.958473662106178,0.07264373002561313,-0.7539663307652662,1.9374402027917572,0.0,0.0
2.224448897795591,-0.07981018294498413,0.9952642649776463,0.056890786825368495,-0.7876471600122313,1.5742747528512488,0.0,0.0
2.244488977955912,-0.05930629968649836,1.0251941629242884,0.04057608784941272,-0.815734948797789,1.1971852503939049,0.0,0.0
2.2645290581162323,-0.0383463895863953,1.0479955050051526,0.023816711498355753,-0.8379688175528482,0.8082850258869937,0.0,0.0
2.284569138276553,-0.017077576304460898,1.0634406640967202,0.006734342678817434,-0.854118440976916,0.40979677387879243,0.0,0.0
2.3046092184368736,0.004349315438387007,1.0713445871423952,-0.010545417450088187,-0.8639880064452811,0.004076025947277961,0.0,0.0
2.3246492985971945,0.025780666611354072,1.0715675586483533,-0.027893829350238257,-0.8674205950075036,-0.4063680340272199,0.0,0.0
2.344689378757515,0.04706103278248645,1.0640183085566188,-0.04517988526984085,-0.8643027959801293,-0.8188566247343682,0.0,0.0
2.3647294589178354,0.06803417990070568,1.0486573559109615,-0.062271271881994245,-0.85456933060767,-1.2305324522327163,0.0,0.0
2.3847695390781563,0.08854418875084599,1.025500442507016,-0.07903542060181633,-0.8382074359911044,-1.6383598488218447,0.0,0.0
2.4048096192384767,0.10843662629996179,0.9946218774557893,-0.09534063558330871,-0.8152607490746194,-2.039135745847055,0.0,0.0
2.4248496993987976,0.1275597780213261,0.9561575860682158,-0.11105728424259315,-0.7858324329642215,-2.429512875258612,0.0,0.0
2.444889779559118,0.14576593075934446,0.9103076369009182,-0.12605903033734284,-0.7500873047374845,-2.806036038160826,0.0,0.0
2.464929859719439,0.162912690996269,0.8573380118462272,-0.1402240854424934,-0.7082527552575286,-3.1651915287986836,0.0,0.0
2.4849699398797593,0.1788643187720596,0.7975813887895304,-0.1534364513832407,-0.6606182970373637,-3.503468860117799,0.0,0.0
2.50501002004008,0.19349305332341657,0.7314367275678486,-0.16558712408787454,-0.6075336352316921,-3.8174328402518922,0.0,0.0
2.5250501002004007,0.20668040312510905,0.6593674900846239,-0.17657522864847836,-0.5494052280301899,-4.1038028836527225,0.0,0.0
2.5450901803607215,0.21831837083219272,0.5818983853541836,-0.18630905632216993,-0.4866913836845784,-4.359535343380791,0.0,0.0
2.565130260521042,0.22831058300189258,0.49961060848499345,-0.194706976884053,-0.4198960280941534,-4.5819037961504705,0.0,0.0
2.5851703406813624,0.23657329569513152,0.4131356346619472,-0.20169820415091078,-0.34956136334288823,-4.768571784062129,0.0,0.0
2.6052104208416833,0.24303625024153075,0.3231477273199609,-0.20722339847004964,-0.2762597159569431,-4.917652661689048,0.0,0.0
2.6252505010020037,0.24764335851487893,0.2303554136674082,-0.21123509717132982,-0.20058493506400848,-5.027751984311721,0.0,0.0
2.6452905811623246,0.25035320369702074,0.13549225910709123,-0.21369797190107565,-0.12314373648729086,-5.097989255903911,0.0,0.0
2.665330661322645,0.2511393501860265,0.03930732445028909,-0.21458891975467298,-0.04454739267986697,-5.1279976726200225,0.0,0.0
2.685370741482966,0.2499904643593485,-0.05744429133390101,-0.2138970025071213,0.03459586237758412,-5.117902498301248,0.0,0.0
2.7054108216432864,0.24691025560706434,-0.15401043761420788,-0.21162325435441084,0.11368740763552276,-5.068280604714631,0.0,0.0
2.7254509018036073,0.24191725372404596,-0.24965009415091885,-0.20778038290226647,0.19214357260721932,-4.980105243509515,0.0,0.0
2.7454909819639277,0.23504444385213533,-0.3436404935955316,-0.2023923903506915,0.2693996275787481,-4.854681107034987,0.0,0.0
2.7655310621242486,0.22633878335681992,-0.4352830247657701,-0.19549414183311778,0.34491242587868676,-4.6935751108768144,0.0,0.0
2.785571142284569,0.21586062619657553,-0.5239078580122195,-0.1871309058107926,0.41816180111625856,-4.498548126817627,0.0,0.0
2.8056112224448895,0.2036830795974336,-0.6088773299570976,-0.17735788761078386,0.4886509100004378,-4.271492226616854,0.0,0.0
2.8256513026052104,0.18989131544820437,-0.6895882074614614,-0.16623977206552057,0.5559057772631644,-4.014377025408002,0.0,0.0
2.845691382765531,0.17458185515853553,-0.7654730144834418,-0.15385028525554298,0.6194743404988801,-3.7292076028490198,0.0,0.0
2.8657314629258517,0.1578618421955445,-0.8360006481495506,-0.14027177906895283,0.6789253093295068,-3.4179953720283853,0.0,0.0
2.885771543086172,0.13984831155432573,-0.900676532060939,-0.1255948361258096,0.7338471471571619,-3.0827422605761186,0.0,0.0
2.905811623246493,0.12066746040272847,-0.9590425575798633,-0.10991788696659117,0.783847457960921,-2.7254377214524808,0.0,0.0
2.9258517034068134,0.10045391939125725,-1.0106770505735603,-0.09334682659369294,0.828553018644912,-2.34806741997578,0.0,0.0
2.9458917835671343,0.07935001988841267,-1.0551949751422287,-0.07599461373664612,0.8676106428523404,-1.9526319374710774,0.0,0.0
2.9659318637274548,0.057505048881153396,-1.0922485503629638,-0.057980833772580925,0.9006889982032599,-1.541173463801636,0.0,0.0
2.9859719438877756,0.035074480605925606,-1.1215284137613895,-0.039431205198386374,0.9274814287097274,-1.1158081883148678,0.0,0.0
3.006012024048096,0.01221917224017693,-1.1427654182874338,-0.020477009983143897,0.9477097607621238,-0.6787619109444811,0.0,0.0
3.0260521042084165,-0.01089548975510007,-1.15573309976385,-0.0012544300274264196,0.9611289977858739,-0.23240625888909716,0.0,0.0
3.0460921843687374,-0.034100505764601496,-1.1602508004750711,0.01809622474960216,0.9675327388514289,0.2207072034640808,0.0,0.0
3.066132264529058,-0.05722425342323931,-1.1561873829318903,0.03743140662438091,0.9667590937389372,0.6778177465289115,0.0,0.0
3.0861723446893787,-0.08009356176179463,-1.1434654169277665,0.05660534291738975,0.9586968146504423,1.1359339223726268,0.0,0.0
3.106212424849699,-0.10253487523972599,-1.1220656738965678,0.07547116943747056,0.9432913260040406,1.5918224308380944,0.0,0.0
3.12625250501002,-0.12437550957131852,-1.0920317165796263,0.0938821756557981,0.9205503109163767,2.042009998028761,0.0,0.0
3.1462925851703405,-0.1454449961877666,-1.0534743308224044,0.11169314580842028,0.8905485076311096,2.482800556464676,0.0,0.0
