time,x,x_dot,theta,theta_dot,u,x_ref,theta_ref
0.0,0.2830257216612799,0.056707861973847334,-0.13104320274666917,-0.00383100855536625,-1.9716580470065017,0.0,0.0
0.02004008016032064,0.28342853287106773,0.02014056048939126,-0.13080073962576189,0.012123156045364125,-2.0789919595522446,0.0,0.0
0.04008016032064128,0.2830580948612021,-0.01852190049328309,-0.13017546697047302,0.0312636327644433,-2.1476590107644773,0.0,0.0
0.06012024048096192,0.28188746077879606,-0.05853170412030103,-0.1291235941482356,0.05259364111187174,-2.201369147395383,0.0,0.0
0.08016032064128256,0.27989538560466987,-0.09960375870631079,-0.127607246260846,0.07581739436947979,-2.2394565015115786,0.0,0.0
0.1002004008016032,0.27706657392713424,-0.14144058387678163,-0.12559460467746938,0.10063207916883003,-2.261402351079693,0.0,0.0
0.12024048096192384,0.2733918725778037,-0.18373506746652796,-0.12306000526202465,0.12672997077223636,-2.266837812123086,0.0,0.0
0.1402805611222445,0.26886840720406013,-0.2261732686871768,-0.11998399403833354,0.15380056118455537,-2.2555437414666697,0.0,0.0
0.16032064128256512,0.26349966288953497,-0.2684372157262587,-0.11635334102880954,0.18153265047620054,-2.227448498441372,0.0,0.0
0.18036072144288576,0.25729550971238485,-0.310207658857507,-0.1121610135838449,0.20961637224823138,-2.1826237973139624,0.0,0.0
0.2004008016032064,0.25027217481669684,-0.35116674478440063,-0.107406110961249,0.2377451311297953,-2.121278965824762,0.0,0.0
0.22044088176352705,0.2424521631358264,-0.39100058404352195,-0.10209376220066718,0.2656174380290906,-2.0437539833051437,0.0,0.0
0.24048096192384769,0.23386412932852246,-0.4294016903651974,-0.096234989462388,0.2929386369139594,-1.9505117015782587,0.0,0.0
0.2605210420841683,0.22454270376078256,-0.46607127838699547,-0.08984653897141147,0.31942252454882625,-1.8421295458952156,0.0,0.0
0.280561122244489,0.214528275532409,-0.5007214114186783,-0.08295068160770133,0.3447928681855066,-1.719291772057906,0.0,0.0
0.3006012024048096,0.20386673530542704,-0.5330770113490976,-0.07557498457247007,0.36878485176156306,-1.5827806745269388,0.0,0.0
0.32064128256513025,0.19260918108872366,-0.5628777108351696,-0.06775205600350095,0.39114642844845565,-1.4334698545626308,0.0,0.0
0.3406813627254509,0.18081158933175856,-0.5898795878482546,-0.059519263169894934,0.4116396416803008,-1.2723173265217411,0.0,0.0
0.3607214428857715,0.16853445375835963,-0.6138567786699464,-0.05091842503868977,0.43004190656025826,-1.1003596171882002,0.0,0.0
0.3807615230460922,0.15584239401179642,-0.63460298732816,-0.04199547959739477,0.4461472720647502,-0.9187066375263269,0.0,0.0
0.4008016032064128,0.14280373591915374,-0.6519329046321338,-0.03280012611917469,0.45976767391100376,-0.7285372262058296,0.0,0.0
0.42084168336673344,0.12949006496737483,-0.6656835475889448,-0.02338544247903095,0.470734182007187,-0.5310951885290014,0.0,0.0
0.4408817635270541,0.11597575444183233,-0.6757155262771253,-0.013807477688269626,0.4788982395380662,-0.3276855688717291,0.0,0.0
0.4609218436873747,0.10233746964091774,-0.6819142400457302,-0.0041248200327817595,0.48413288277439326,-0.11967069774956748,0.0,0.0
0.48096192384769537,0.08865364972014003,-0.6841909960388852,0.005601858335484251,0.4863339184133005,0.09153339594693788,0.0,0.0
0.501002004008016,0.07500396862333658,-0.6824840548401725,0.015310279436794605,0.4854210550655177,0.3044626636373382,0.0,0.0
0.5210420841683366,0.061468777411925704,-0.6767595605705438,0.024937057790166875,0.48133891766861353,0.5176105400873412,0.0,0.0
0.5410821643286573,0.048128530259715294,-0.6670123576105205,0.034418216685806184,0.4740579447819654,0.7294353690266748,0.0,0.0
0.561122244488978,0.03506319714100278,-0.6532666559356256,0.04368971895230235,0.4635751133248081,0.9383693195231422,0.0,0.0
0.5811623246492986,0.022351666814612953,-0.6355765163194916,0.0526880080383878,0.44991445430427246,1.14282905688707,0.0,0.0
0.6012024048096192,0.01007114436689535,-0.6140261223858802,0.061350554474053055,0.43312732178326274,1.3412282308562617,0.0,0.0
0.6212424849699398,-0.0017034517552526104,-0.588729806107398,0.06961640210314886,0.41329238145479014,1.531991730427687,0.0,0.0
0.6412825651302605,-0.012900087656787868,-0.5598317950767628,0.0774267079356434,0.3905152916247266,1.7135715319702074,0.0,0.0
0.6613226452905812,-0.023450200733428336,-0.5275056538320233,0.08472526909399047,0.36492805791735416,1.8844638416312889,0.0,0.0
0.6813627254509018,-0.03328926868739735,-0.49195339769845076,0.09145903015887188,0.3366880532440704,2.043227113505325,0.0,0.0
0.7014028056112224,-0.042357354004495786,-0.45340426585492183,0.09757856427903062,0.305976706007937,2.1885004210551737,0.0,0.0
0.721442885771543,-0.050599617010785594,-0.41211315031449053,0.1030385217097448,0.2729978715357084,2.319021580871058,0.0,0.0
0.7414829659318637,-0.05796679078537382,-0.36835868872941113,0.10779803998219424,0.23797591362247236,2.4336443841015547,0.0,0.0
0.7615230460921844,-0.06441561160017745,-0.3224410407401812,0.11182111066380815,0.20115353408069572,2.531354288784518,0.0,0.0
0.781563126252505,-0.06990919918466286,-0.27467937922427044,0.11507689861479553,0.16278939754936875,2.611281969725515,0.0,0.0
0.8016032064128256,-0.07441738195357402,-0.225409138445558,0.11754001073176411,0.12315560584842858,2.6727142111369244,0.0,0.0
0.8216432865731462,-0.07791696335284914,-0.17497906996375615,0.11919071233778332,0.0825350803009604,2.7151017560433424,0.0,0.0
0.8416833667334669,-0.08039192662363874,-0.12374816353947962,0.12001509056432777,0.04121891132722266,2.7380638861311954,0.0,0.0
0.8617234468937875,-0.08183357649662971,-0.07208249364954886,0.12000516520671904,-0.0004962678804365725,2.741389683366803,0.0,0.0
0.8817635270541082,-0.08224061754329773,-0.020352052333400955,0.11915894855639315,-0.04231083251629415,2.7250361053135537,0.0,0.0
0.9018036072144289,-0.08161917006179314,0.03107237407522915,0.11748045656425418,-0.08392459960694873,2.689123174248793,0.0,0.0
0.9218436873747494,-0.07998272540300884,0.08182223293921512,0.11497967432616969,-0.12503911190422465,2.633926722047189,0.0,0.0
0.9418837675350701,-0.07735204349756211,0.1315340952723363,0.11167247927737031,-0.165359752439969,2.5598692374341123,0.0,0.0
0.9619238476953907,-0.07375499599182732,0.1798523752867395,0.10758052562856343,-0.20459768244034365,2.4675094228436514,0.0,0.0
0.9819639278557114,-0.06922635882221818,0.22643185848045672,0.10273109348301539,-0.24247160727740252,2.357530967113217,0.0,0.0
1.002004008016032,-0.06380755829521229,0.27094002635029496,0.09715690583506463,-0.27870938239753795,2.230731907464409,0.0,0.0
1.0220440881763526,-0.05754637446112957,0.31305919170413576,0.09089591578710954,-0.31304950239775436,2.0880128722173366,0.0,0.0
1.0420841683366733,-0.050496605976002425,0.3524884242563573,0.08399106663615488,-0.34524245754773253,1.930368073732366,0.0,0.0
1.062124248496994,-0.04271769956416142,0.3889453205920503,0.076490025736827,-0.3750520449663935,1.758876298824358,0.0,0.0
1.0821643286573146,-0.03427434720585932,0.4221676179151049,0.06844489307931816,-0.40225663287544244,1.574693566857486,0.0,0.0
1.1022044088176353,-0.025236053553809486,0.4519146826024916,0.05991188474394208,-0.42665041676880366,1.3790471453033661,0.0,0.0
1.122244488977956,-0.015676675599853928,0.47796889769777784,0.050950990934188936,-0.4480446904876571,1.1732308477702882,0.0,0.0
1.1422845691382766,-0.005673936173441432,0.5001369713206247,0.041625607980626256,-0.4662691476781341,0.9586014216518031,0.0,0.0
1.1623246492985972,0.004691087500509871,0.5182511836975652,0.03200214358294938,-0.48117321988384393,0.7365755551525215,0.0,0.0
1.1823647294589177,0.01533449912149311,0.5321705810491619,0.022149594741659926,-0.4926274420644727,0.5086278500496058,0.0,0.0
1.2024048096192383,0.026170141746760495,0.5417821312633692,0.012139097808647581,-0.5005248466506172,0.27628765052130905,0.0,0.0
1.222444889779559,0.037110178053117324,0.5470018153178415,0.002043451251897508,-0.5047823278375037,0.0411363260936522,0.0,0.0
1.2424849699398797,0.04806569125357462,0.5477756600228647,-0.008063388117026608,-0.5053419684462058,-0.19519691512542459,0.0,0.0
1.2625250501002003,0.05894730486970759,0.5440806808066486,-0.018106833542622235,-0.5021722712797814,-0.43104057846343535,0.0,0.0
1.282565130260521,0.06966581899355642,0.5359257061924416,-0.028012218485127475,-0.495269247125262,-0.6646882703069505,0.0,0.0
1.3026052104208417,0.080132859943552,0.5233520474997787,-0.03770536460614579,-0.4846573060509157,-0.8944082204894823,0.0,0.0
1.3226452905811623,0.09026153939615433,0.5064339726301169,-0.0471131625801576,-0.4703898987005907,-1.1184551262110078,0.0,0.0
1.342685370741483,0.099967118203053,0.4852789403449331,-0.056164159731496216,-0.4525498575669306,-1.3350843690002405,0.0,0.0
1.3627254509018036,0.1091676692344349,0.4600275515690948,-0.06478914762583346,-0.43124939471686186,-1.5425685029070675,0.0,0.0
1.3827655310621243,0.11778473277869635,0.4308531772130724,-0.07292174206504012,-0.4066297219603334,-1.7392157486720277,0.0,0.0
1.4028056112224447,0.1257439573369452,0.39796122791244337,-0.08049894749725674,-0.37886027161083097,-1.9233900648350974,0.0,0.0
1.4228456913827654,0.13297571813420492,0.3615880398629859,-0.08746169770156223,-0.3481375102152746,-2.093532214690347,0.0,0.0
1.442885771543086,0.13941570538024828,0.32199936230216797,-0.09375536476528615,-0.3146833531861962,-2.248181121024068,0.0,0.0
1.4629258517034067,0.1450054742930479,0.2794884456399799,-0.09933022885038122,-0.27874320425475335,-2.3859947119325025,0.0,0.0
1.4829659318637274,0.14969294917378978,0.23437374403709432,-0.1041419020319972,-0.24058365908079926,-2.505769422540887,0.0,0.0
1.503006012024048,0.15343287440247375,0.18699626143419817,-0.10815170055522622,-0.20048992616145045,-2.606457537424677,0.0,0.0
1.5230460921843687,0.1561872060943104,0.13771658459183161,-0.11132696114254619,-0.1587630293659982,-2.68718164021032,0.0,0.0
1.5430861723446894,0.15792543928443353,0.08691165950615742,-0.1136412984248563,-0.11571686411550626,-2.747245577298029,0.0,0.0
1.56312625250501,0.15862486683634436,0.03497137759554136,-0.11507480208014065,-0.07167518276421747,-2.786141532352074,0.0,0.0
1.5831663326653307,0.1582707677256955,-0.01770495553244302,-0.11561417375569374,-0.026968583777654494,-2.8035530318601705,0.0,0.0
1.6032064128256511,0.15685652385222462,-0.07071219367354459,-0.11525280523267185,0.01806842615109458,-2.7993539401412946,0.0,0.0
1.6232464929859718,0.15438366599178577,-0.12364289302194324,-0.11399080048344823,0.06310023746118132,-2.7736037333486894,0.0,0.0
1.6432865731462925,0.15086185083440087,-0.17609075786924422,-0.1118349452056382,0.10779276389050146,-2.726539545998605,0.0,0.0
1.6633266533066131,0.14630877219118177,-0.22765393216095564,-0.10879862804494708,0.15181585803455633,-2.658565643259111,0.0,0.0
1.6833667334669338,0.14075001033821632,-0.27793809264827257,-0.10490171801955274,0.1948455012697171,-2.570241075995854,0.0,0.0
1.7034068136272544,0.13421882406564858,-0.3265593136283872,-0.10017040263433626,0.23656576926082415,-2.462266318047466,0.0,0.0
1.723446893787575,0.12675589030463882,-0.373146688050488,-0.0946369908509204,0.2766705891707934,-2.3354695762869806,0.0,0.0
1.7434869739478958,0.11840899626079249,-0.41734470219231645,-0.08833968456013423,0.31486531453930794,-2.1907941005802223,0.0,0.0
1.7635270541082164,0.10923268854493953,-0.4588153857926478,-0.08132232113941079,0.35086817103617185,-2.0292853134267754,0.0,0.0
1.783567134268537,0.09928788384015907,-0.4972402352390228,-0.07363408953325569,0.3844115803077549,-1.8520809478636417,0.0,0.0
1.8036072144288577,0.08864144447449049,-0.5323219682834293,-0.06532922052645299,0.41524345034013543,-1.6604020421223933,0.0,0.0
1.8236472945891782,0.07736572196287728,-0.5637861255806608,-0.056466651570724016,0.44312844778644833,-1.455546068684662,0.0,0.0
1.8436873747494988,0.0655380708003209,-0.5913825581278189,-0.047109665657030675,0.467849295684667,-1.238881866059638,0.0,0.0
1.8637274549098195,0.053240334155195676,-0.614886832256261,-0.037325503197932035,0.48920812295493193,-1.0118461968509165,0.0,0.0
1.8837675350701402,0.040558302562477305,-0.6341015796359186,-0.02718494556638639,0.5070278815772821,-0.7759414224311487,0.0,0.0
1.9038076152304608,0.027581146376271858,-0.6488578093102724,-0.016761868978607035,0.5211538293889679,-0.5327345120882326,0.0,0.0
1.9238476953907815,0.014400822319954957,-0.659016202815845,-0.006132767336317643,0.5314550821144696,-0.28385526136774186,0.0,0.0
1.9438877755511021,0.001111454878444636,-0.664468372075516,0.004623756223270973,0.5378261779794308,-0.030995095397636674,0.0,0.0
1.9639278557114228,-0.01219130686173002,-0.6651380870087328,0.01542752907499826,0.5401886425863643,0.2240955480163147,0.0,0.0
1.9839679358717435,-0.025410955690203282,-0.6609824414236631,0.026197378869540183,0.5384924897270962,0.4796113291006575,0.0,0.0
2.004008016032064,-0.03845081419735402,-0.6519929253575371,0.03685173087446936,0.5327176002464586,0.7336982370121642,0.0,0.0
2.024048096192385,-0.05121474141940355,-0.6381963611024762,0.047309229135213834,0.5228749130372238,0.9844623959280676,0.0,0.0
2.0440881763527052,-0.06360785447444095,-0.61965565275187,0.057489376341585886,0.5090073603186025,1.2299817763934866,0.0,0.0
2.064128256513026,-0.0755372603589782,-0.5964702942268624,0.06731318597039435,0.4911904814404232,1.4683209836865203,0.0,0.0
2.0841683366733466,-0.08691279193760115,-0.5687765789311475,0.07670383908371814,0.4695326556661893,1.6975491078550267,0.0,0.0
2.1042084168336674,-0.09764774105503674,-0.5367474558717794,0.08558733717579053,0.44417490460361997,1.91576041169855,0.0,0.0
2.124248496993988,-0.10765958070630026,-0.5005919825631764,0.09389314175225638,0.4152902288232922,2.1210974145218024,0.0,0.0
2.1442885771543083,-0.11687066739396869,-0.46055433438342147,0.10155479095516522,0.3830824601454419,2.31177571585004,0.0,0.0
2.164328657314629,-0.12520891425584835,-0.41691234309398284,0.10851048356017988,0.3477846302507333,2.4861097121034246,0.0,0.0
2.1843687374749496,-0.13260842532539246,-0.3699755534772054,0.11470362109281895,0.3096568766319538,2.6425382099498975,0.0,0.0
2.2044088176352705,-0.1390100814387496,-0.3200828056678562,0.12008329963697591,0.2689839272078476,2.7796488513547946,0.0,0.0
2.224448897795591,-0.1443620688511363,-0.2675993706193354,0.1246047441130416,0.2260722238032845,2.896200252525711,0.0,0.0
2.244488977955912,-0.1486203425684426,-0.21291368586531423,0.12822967932843027,0.18124676076943436,2.991140831118694,0.0,0.0
2.2645290581162323,-0.1517490177042322,-0.1564337567894803,0.13092663386793685,0.13484772697532965,3.06362345366057,0.0,0.0
2.284569138276553,-0.15372068377411052,-0.09858330349391678,0.13267117479164267,0.08722704618529109,3.1130152688450208,0.0,0.0
2.3046092184368736,-0.1545166386490221,-0.03979774374557856,0.1334460730266537,0.038744911750551496,3.1389023832464744,0.0,0.0
2.3246492985971945,-0.15412704079753883,0.01947989257416253,0.13324140115410246,-0.010233593627561544,3.141089357807486,0.0,0.0
2.344689378757515,-0.15255098033637776,0.0788030230580534,0.13205456688916886,-0.059341713246680354,3.1195938256257922,0.0,0.0
2.3647294589178354,-0.1497964711617923,0.13772545872927403,0.12989028683079182,-0.10821400291885161,3.074636823790343,0.0,0.0
2.3847695390781563,-0.14588036794835516,0.19580516067185724,0.1267605059463268,-0.15648904422325138,3.0066296679203495,0.0,0.0
2.4048096192384767,-0.14082821299426856,0.25260774770432903,0.12268426871363383,-0.2038118616346476,2.91615835893536,0.0,0.0
2.4248496993987976,-0.13467401871048004,0.3077097141894259,0.11768754786254228,-0.24983604255457803,2.8039665876604265,0.0,0.0
2.444889779559118,-0.1274599919730004,0.360701336873982,0.11180303626683674,-0.2942255797852769,2.6709383941387,0.0,0.0
2.464929859719439,-0.11923620659362587,0.4111892689687265,0.10506990679430125,-0.3366564736267741,2.5180814485003014,0.0,0.0
2.4849699398797593,-0.11006022985318213,0.45879883702218655,0.0975335439097674,-0.3768181442266926,2.3465118392463964,0.0,0.0
2.50501002004008,-0.09999670841736856,0.5031760717906787,0.08924524960285785,-0.414414715345478,2.1574407275739587,0.0,0.0
2.5250501002004007,-0.0891169182243939,0.5439895096487333,0.08026192507770775,-0.4491662262575046,1.95216385815015,0.0,0.0
2.5450901803607215,-0.07749828184849206,0.5809318187950918,0.07064572820793545,-0.48080984348861544,1.7320534656071491,0.0,0.0
2.565130260521042,-0.06522385596739348,0.6137212940549286,0.06046370583520541,-0.5091011186365019,1.4985528649412208,0.0,0.0
2.5851703406813624,-0.05238179059935419,0.6421032684019645,0.04978739909745101,-0.5338153368877201,1.25317350185062,0.0,0.0
2.6052104208416833,-0.039064760921358264,0.6658514838997962,0.03869241936151084,-0.5547489867970082,0.9974937997009259,0.0,0.0
2.6252505010020037,-0.02536937190030203,0.6847694510528118,0.027257992206964926,-0.5717213577272956,0.7331601230526785,0.0,0.0
2.6452905811623246,-0.011395535273135287,0.6986918313583371,0.015566466632028425,-0.584576278746825,0.46188712516632086,0.0,0.0
2.665330661322645,0.0027541812164703743,0.7074858244802831,0.003702787949505921,-0.5931839341261252,0.18545930514149267,0.0,0.0
2.685370741482966,0.016975232764600574,0.71105257740651,-0.008246067008704127,-0.5974427479105023,-0.09426886469757167,0.0,0.0
2.7054108216432864,0.031161804409011486,0.7093285822205456,-0.02019169221284951,-0.5972812602072691,-0.37537434129111547,0.0,0.0
2.7254509018036073,0.045207544975567886,0.7022870283278199,-0.032044890711310725,-0.5926599249230607,-0.6558693088205698,0.0,0.0
2.7454909819639277,0.059006326168203255,0.6899390596317686,-0.04371634563072362,-0.5835727459706449,-0.9337080396687594,0.0,0.0
2.7655310621242486,0.07245302368784923,0.6723348759822989,-0.0551173189105672,-0.570048663992179,-1.2067973531524416,0.0,0.0
2.785571142284569,0.08544431588457961,0.6495646098365193,-0.06616037102443421,-0.5521526056933507,-1.473011029014943,0.0,0.0
2.8056112224448895,0.09787949396897523,0.621758904219781,-0.07676009328875986,-0.5299861132162823,-1.7302083121540552,0.0,0.0
2.8256513026052104,0.10966127631742703,0.5890891174225898,-0.08683384292082093,-0.5036874816030531,-1.9762563876990311,0.0,0.0
2.845691382765531,0.12069661799658717,0.5517670839580069,-0.09630246988171406,-0.4734313480446566,-2.2090564224160767,0.0,0.0
2.8657314629258517,0.13089750540590986,0.5100443704661349,-0.10509102381565644,-0.43942769669711895,-2.4265724760027467,0.0,0.0
2.885771543086172,0.1401817249963467,0.4642109795218425,-0.11312942914550284,-0.40192026649231966,-2.6268623063124354,0.0,0.0
2.905811623246493,0.1484735944628494,0.4145934733251352,-0.12035311665300279,-0.36118437537499726,-2.8081088524823996,0.0,0.0
2.9258517034068134,0.15570464470723175,0.36155251221911683,-0.12670360067822384,-0.3175242012610521,-2.9686510077639214,0.0,0.0
2.9458917835671343,0.16181424127908217,0.30547982859252065,-0.13212899239800485,-0.2712695859890503,-3.1070122156692683,0.0,0.0
2.9659318637274548,0.16675013494407717,0.2467946832497494,-0.13658444143280568,-0.2227724517400419,-3.2219254585884713,0.0,0.0
2.9859719438877756,0.17046893247844638,0.18593987671846118,-0.1400325001917462,-0.17240293794702652,-3.3123533656677715,0.0,0.0
3.006012024048096,0.1729364806793433,0.12337741004484667,-0.1424434077702997,-0.12054537892767542,-3.377502440685475,0.0,0.0
3.0260521042084165,0.1741281588067262,0.05958390636914476,-0.14379529271216043,-0.06759424709303688,-3.4168307800564075,0.0,0.0
3.0460921843687374,0.17402907709376078,-0.004954085648270712,-0.1440742963713643,-0.013950182960193208,-3.4300490816257065,0.0,0.0
3.066132264529058,0.17263418142068057,-0.06974478365400985,-0.1432746207998219,0.039983778577119454,-3.4171151937551167,0.0,0.0
3.0861723446893787,0.1699482665783713,-0.13429574211546255,-0.14139850689340516,0.09380569532083691,-3.378222875787797,0.0,0.0
3.106212424849699,0.16598590260196747,-0.19811819882019222,-0.13845614984248825,0.1471178525458463,-3.3137857942020026,0.0,0.0
3.12625250501002,0.16077128030779314,-0.2607311147087157,-0.1344655596782381,0.19952950821250842,-3.224418032331621,0.0,0.0
