time,x,x_dot,theta,theta_dot,u,x_ref,theta_ref
0.0,-1.5097379613045137,-0.0483773850454454,-0.03769170887154755,0.09383678962888439,-9.999999854663779,0.0,0.0
0.02004008016032064,-1.5145965784738584,-0.24293085846724174,-0.03020759370258199,0.37420575844827775,-8.89892497939849,0.0,0.0
0.04008016032064128,-1.5229189862721273,-0.4161203899134478,-0.017710889445637396,0.6248352128472296,-7.109855589030184,0.0,0.0
0.06012024048096192,-1.534010840917613,-0.5545927322742839,-0.0011673303017391105,0.8271779571949142,-5.233512778588635,0.0,0.0
0.08016032064128256,-1.547144629456631,-0.6566894269509012,0.01843035486623124,0.9798842583985174,-3.1194439780790675,0.0,0.0
0.1002004008016032,-1.5615006123666388,-0.7177991455003954,0.03996817200417156,1.0768908568970164,-1.8763741897247868,0.0,0.0
0.12024048096192384,-1.5765992587312447,-0.754932318230298,0.06285320294134794,1.1442515468588188,-2.467010988730295,0.0,0.0
0.1402805611222445,-1.5926766787567117,-0.8038710012733441,0.08757168296053638,1.2359240009594223,-0.5985006394433403,0.0,0.0
0.16032064128256512,-1.6090098728005868,-0.8166597021937532,0.11318605751319225,1.2807187276327927,2.1958791725298967,0.0,0.0
0.18036072144288576,-1.6245155018240676,-0.7752814511740403,0.13823149703065915,1.2522719758733454,3.811210558367022,0.0,0.0
0.2004008016032064,-1.6385708140503716,-0.7027656113152032,0.1619332676837131,1.1850885326526983,4.404434839603812,0.0,0.0
0.22044088176352705,-1.6509517743691757,-0.6190480159402063,0.1841053354848988,1.108603390059285,4.973150691996022,0.0,0.0
0.24048096192384769,-1.661443907515217,-0.5246066573020646,0.20456954481928463,1.0232104667192918,5.592204172923218,0.0,0.0
0.2605210420841683,-1.6698130881797788,-0.41845903322809597,0.22311142364992465,0.9270939415319999,6.096567116054057,0.0,0.0
0.280561122244489,-1.67586964849701,-0.30282801586156,0.23957269237223752,0.8230634361156437,6.490965023252439,0.0,0.0
0.3006012024048096,-1.6794663291980014,-0.17983403504957146,0.25384614306026376,0.7136725344013117,6.777827501552929,0.0,0.0
0.32064128256513025,-1.6804971377185955,-0.05154042602970654,0.26587216689088083,0.6013011915308536,6.972797978401321,0.0,0.0
0.3406813627254509,-1.6788911042242916,0.08030167471519617,0.2756282949054841,0.487806400730163,7.0819029956204735,0.0,0.0
0.3607214428857715,-1.6746098170633215,0.21406435804850216,0.2831246745931433,0.3748189843829589,7.105738945855407,0.0,0.0
0.3807615230460922,-1.6676471071532644,0.3481354955028503,0.2884030595253197,0.2639192466088214,7.057735755872234,0.0,0.0
0.4008016032064128,-1.6580237949859586,0.4811656083652852,0.2915291123980165,0.15630264363484037,6.946442013150903,0.0,0.0
0.42084168336673344,-1.6457843738464435,0.6119710569757554,0.2925878848272133,0.05293862145984264,6.795902852606561,0.0,0.0
0.4408817635270541,-1.630987715998347,0.7398328924048263,0.2916710330886575,-0.045842586927791334,6.585454831917963,0.0,0.0
0.4609218436873747,-1.6137151422702947,0.8636286864026161,0.28888914187069065,-0.13909456089834274,6.341295478328831,0.0,0.0
0.48096192384769537,-1.5940603352965006,0.9827403486897072,0.28435820915318155,-0.22654663587545615,6.0688006522259474,0.0,0.0
0.501002004008016,-1.5721273383301742,1.096649848316325,0.27819782549771727,-0.308019182773215,5.759535625033618,0.0,0.0
0.5210420841683366,-1.5480339167675958,1.2046710781289174,0.27053712339979025,-0.3830351048963506,5.079774687136205,0.0,0.0
0.5410821643286573,-1.522041205924308,1.2996355421643864,0.2617032679652379,-0.44169277172761745,4.891679153715429,0.0,0.0
0.561122244488978,-1.494219238588346,1.3910983667981065,0.25174097047580407,-0.49811487447169067,4.699236845065127,0.0,0.0
0.5811623246492986,-1.4646394239300313,1.4789907329157275,0.24069034435823108,-0.5525313058786494,4.480272485703415,0.0,0.0
0.6012024048096192,-1.4333831925604694,1.5628115684780963,0.2285998645420905,-0.6045239908070292,4.222839718464703,0.0,0.0
0.6212424849699398,-1.4005466834005436,1.6418254579962956,0.2155337355944556,-0.6533064473817451,3.935185940103116,0.0,0.0
0.6412825651302605,-1.3662375905870063,1.7154546406768638,0.20156795037275724,-0.6982892610849185,3.637167707517215,0.0,0.0
0.6613226452905812,-1.3305674888911017,1.7835050847952307,0.1867797086042961,-0.7394120884230565,3.3143104709931017,0.0,0.0
0.6813627254509018,-1.293657503719125,1.8454992585988328,0.1712563384349576,-0.7761685084669249,2.9365206391036796,0.0,0.0
0.7014028056112224,-1.2556500733087979,1.9003715205163556,0.15511334094860926,-0.8071498743174166,2.5878929138111904,0.0,0.0
0.721442885771543,-1.2166762538865603,1.9486909711118732,0.13844690418787373,-0.8333218380367765,2.2324790938190526,0.0,0.0
0.7414829659318637,-1.1768697315746015,1.9903261155979417,0.12135510016569276,-0.854590201109048,1.8760505677598784,0.0,0.0
0.7615230460921844,-1.136364593387871,2.0252569093365236,0.10393510222420296,-0.8709998970744897,1.5691230286716784,0.0,0.0
0.781563126252505,-1.0952756438587103,2.054447476458037,0.0862543146659756,-0.8840393779113674,1.23211818949969,0.0,0.0
0.8016032064128256,-1.0537294254456304,2.0773109206540017,0.06839683085265351,-0.892874190666105,0.9698929136454406,0.0,0.0
0.8216432865731462,-1.0118233333471613,2.0953046049234496,0.05040274391610723,-0.899704346827314,0.6207628556727065,0.0,0.0
0.8416833667334669,-0.9696886729470781,2.106733020004167,0.03236251143946131,-0.9020116238322958,0.35463815216030775,0.0,0.0
0.8617234468937875,-0.9274243895753596,2.113214168585924,0.01431820721264002,-0.9022152113410646,0.025066582607070176,0.0,0.0
0.8817635270541082,-0.8851542008306996,2.113509437232997,-0.003650813036338244,-0.8984510124489131,-0.3486002420584273,0.0,0.0
0.9018036072144289,-0.8430190559067602,2.1067572461969717,-0.02143884875247671,-0.8894017858069232,-0.7336637512035429,0.0,0.0
0.9218436873747494,-0.8011643838587601,2.0927336024000023,-0.03893250659542045,-0.874682892147187,-1.0560997200124962,0.0,0.0
0.9418837675350701,-0.7597112177686128,2.0726583045073657,-0.056053460129963956,-0.8560476767271755,-1.4001472197115739,0.0,0.0
0.9619238476953907,-0.7187890714325663,2.0461073168023267,-0.0727088478042674,-0.8327693837151724,-1.7444998894147514,0.0,0.0
0.9819639278557114,-0.6785276347698768,2.0130718331344797,-0.08880329150520619,-0.8047221850469399,-2.036799887471642,0.0,0.0
1.002004008016032,-0.6390363674388715,1.9745633665502622,-0.10426890374202694,-0.773280611841037,-2.348588219955802,0.0,0.0
1.0220440881763526,-0.6004324207369651,1.9301973350953185,-0.11902319908881086,-0.7377147673391962,-3.4956361377474487,0.0,0.0
1.0420841683366733,-0.5631586566726773,1.8636882032143924,-0.1324953433517541,-0.6736072131471633,-3.5973973270692206,0.0,0.0
1.062124248496994,-0.527250582405898,1.7954037133389664,-0.14471448596491152,-0.6109571306578707,-3.732633966320518,0.0,0.0
1.0821643286573146,-0.49275707457612,1.724675391488897,-0.15568269444318103,-0.5484104239134757,-3.8409970061488723,0.0,0.0
1.1022044088176353,-0.4597168720258425,1.6520101275138759,-0.1654098061940961,-0.4863555875457532,-3.9141936564990654,0.0,0.0
1.122244488977956,-0.4281553658744392,1.5780753075701652,-0.1739180898500452,-0.4254141827974553,-3.968915004002608,0.0,0.0
1.1422845691382766,-0.39809111438120326,1.5032125746617957,-0.181232609035337,-0.36572595926458934,-4.000219026487626,0.0,0.0
1.1623246492985972,-0.3695339250316751,1.4278594674764071,-0.1873841090075538,-0.3075749986108402,-4.013045976002026,0.0,0.0
1.1823647294589177,-0.3424867800853903,1.3523572473142398,-0.19240628028439138,-0.25110856384187835,-4.003051891671308,0.0,0.0
1.2024048096192383,-0.3169441432602255,1.2771318412582378,-0.19633839620189072,-0.19660579587496724,-3.9754249800863377,0.0,0.0
1.222444889779559,-0.29289397224362035,1.2025085508302598,-0.19922254630794772,-0.14420750530284976,-3.9181789358373784,0.0,0.0
1.2424849699398797,-0.2703130436758989,1.1290464283860715,-0.2011107410191387,-0.09440973555954871,-3.8551342557943147,0.0,0.0
1.2625250501002003,-0.2491762062138699,1.0568418731014508,-0.20205162488081443,-0.04704419308378659,-3.772624333936566,0.0,0.0
1.282565130260521,-0.22945104466871102,0.9862580772579435,-0.20209862658116537,-0.002350085017546681,-3.681593929918272,0.0,0.0
1.3026052104208417,-0.21110211807858134,0.9174463295064843,-0.2013040836048422,0.03972714881615855,-3.5765563879684583,0.0,0.0
1.3226452905811623,-0.1940888037966914,0.850665714094496,-0.19972275943981305,0.07906620825145824,-3.4596550783789746,0.0,0.0
1.342685370741483,-0.1783661090147928,0.7861347390949307,-0.19741102361125032,0.11558679142813671,-3.3336916675086394,0.0,0.0
1.3627254509018036,-0.16388573774013768,0.7240185637327556,-0.19442566884553358,0.14926773828583634,-3.198618734490793,0.0,0.0
1.3827655310621243,-0.15059604922892333,0.6644844255607175,-0.1908243597291014,0.1800654558216099,-3.0537027705366695,0.0,0.0
1.4028056112224447,-0.13844174937660556,0.6077149926158896,-0.1866664794097129,0.20789401596942506,-2.903941044955038,0.0,0.0
1.4228456913827654,-0.12736581250006251,0.5537968438271513,-0.182010701044671,0.23278891825209364,-2.7542425784529807,0.0,0.0
1.442885771543086,-0.11731137062402258,0.5027220938019967,-0.1769125902963579,0.25490553741565597,-2.5982578669820673,0.0,0.0
1.4629258517034067,-0.10821922220124201,0.4546074211390282,-0.1714286383427729,0.27419759767925045,-2.439632583176464,0.0,0.0
1.4829659318637274,-0.10002923180360819,0.4094995198816909,-0.16561456183985646,0.29070382514582177,-2.2862127492163777,0.0,0.0
1.503006012024048,-0.09268336751660769,0.3672932143500249,-0.15952116379561074,0.3046699022122854,-2.1287785293957446,0.0,0.0
1.5230460921843687,-0.08612209531663112,0.32806360999882817,-0.1531999737540014,0.3160595020804664,-2.523036110378488,0.0,0.0
1.5430861723446894,-0.08050084543173262,0.28106249424492474,-0.14638287100590525,0.3408551374048084,-2.238180905643364,0.0,0.0
1.56312625250501,-0.07571066791914421,0.23950887562942041,-0.13919038723258612,0.3596241886659571,-1.969713488746915,0.0,0.0
1.5831663326653307,-0.07164906476342682,0.2030801577858694,-0.13173157712661127,0.37294050529874245,-1.70730495299768,0.0,0.0
1.6032064128256511,-0.06821593625844137,0.17165642524927255,-0.12411066744414649,0.38104548412323874,-1.4463215384355776,0.0,0.0
1.6232464929859718,-0.06531174759307971,0.14520943326808317,-0.11643038656460555,0.3840140439770472,-1.241384235920951,0.0,0.0
1.6432865731462925,-0.06285879592657656,0.1226475833251575,-0.10876089095744383,0.3834747803580862,-1.0316773149901999,0.0,0.0
1.6633266533066131,-0.060777493256507185,0.10406513350346891,-0.10117541724063647,0.3792736858403679,-0.8220251349257264,0.0,0.0
1.6833667334669338,-0.05898822874181016,0.08946322573485135,-0.09374792472705049,0.37137462567929924,-0.6544558918110404,0.0,0.0
1.7034068136272544,-0.05742774083200631,0.07802439549019259,-0.0865290744933821,0.36094251168341956,-0.40317910391218453,0.0,0.0
1.723446893787575,-0.0560000522516491,0.07138442901786052,-0.07961973337211307,0.34546705606345096,-0.040123771219341964,0.0,0.0
1.7434869739478958,-0.05456548376936421,0.07172842411424456,-0.07318805042444956,0.3215841473831759,0.10076370135212212,0.0,0.0
1.7635270541082164,-0.053070862119147535,0.07473108251083352,-0.06727584305732646,0.2956103683561548,0.13966287268970518,0.0,0.0
1.783567134268537,-0.051502653698089235,0.07841042105291504,-0.06186873408318838,0.270355448706904,0.16014550498170232,0.0,0.0
1.8036072144288577,-0.04985437423503145,0.08241397315288902,-0.05694475603989544,0.24619890216464696,0.16822277465462407,0.0,0.0
1.8236472945891782,-0.048124249343739274,0.08650624456460908,-0.0524777157890622,0.22335201254166204,0.16814547581703748,0.0,0.0
1.8436873747494988,-0.04631356251336892,0.09053434151851782,-0.04843951142709009,0.20191021809860557,0.15955169696781527,0.0,0.0
1.8637274549098195,-0.04442680316063665,0.09433796763661349,-0.04479974593451012,0.18198827462899866,0.14305302058954392,0.0,0.0
1.8837675350701402,-0.04247143570201667,0.09776837293099903,-0.04152589504751835,0.16369254434958824,0.12864541029061413,0.0,0.0
1.9038076152304608,-0.040454007795821284,0.10087139530976927,-0.03858894611075189,0.14684744683832307,0.11436438139585792,0.0,0.0
1.9238476953907815,-0.038380924173193526,0.10365418113138793,-0.03596207149544282,0.13134373076545378,0.09723688991193731,0.0,0.0
1.9438877755511021,-0.0362596136663953,0.10606552533991115,-0.03361872463360147,0.11716734309206708,0.0916147304358243,0.0,0.0
1.9639278557114228,-0.03409293634307459,0.10833386616603584,-0.03154086448152618,0.10389300760376471,0.06470778098101687,0.0,0.0
1.9839679358717435,-0.031891982706447206,0.11004768183136894,-0.02969967484278918,0.09205948193685004,0.03398454240962222,0.0,0.0
2.004008016032064,-0.029669265708223893,0.11113584991116558,-0.02806559482231503,0.08170400102370745,-0.015835970782636044,0.0,0.0
2.024048096192385,-0.02744469166605346,0.1112287021085217,-0.02659919850235731,0.07331981599788612,0.4326215186209955,0.0,0.0
2.0440881763527052,-0.02504368862573728,0.12005015201580906,-0.025553473990163115,0.052286225609709726,0.2555473364065875,0.0,0.0
2.064128256513026,-0.022535649442310395,0.12540195917134425,-0.024818295260430993,0.03675893648660614,0.18844793215728398,0.0,0.0
2.0841683366733466,-0.019946966327768587,0.1294341557270904,-0.02434979509639647,0.023425008201726147,0.1571886943331165,0.0,0.0
2.1042084168336674,-0.017289970514903816,0.13284979064323854,-0.02412674284584454,0.011152612527596509,0.0654355168877851,0.0,0.0
2.124248496993988,-0.014600528562837254,0.1344720976033281,-0.02409407813245255,0.0016332356695994005,-0.030676214974316635,0.0,0.0
2.1442885771543083,-0.011916153473696598,0.13421875445703277,-0.02419539106696967,-0.00506564672585597,-0.11139005611760963,0.0,0.0
2.164328657314629,-0.009268311548492492,0.13239209626020526,-0.024384120678502257,-0.009436480576629335,-0.20539742325213256,0.0,0.0
2.1843687374749496,-0.0066936312929641705,0.12873401277641608,-0.024606483810136918,-0.011118156581733082,-0.24135693598039712,0.0,0.0
2.2044088176352705,-0.004206080725770508,0.12437752835968313,-0.024842854743307177,-0.011818546658513042,-0.27346401823509986,0.0,0.0
2.224448897795591,-0.0018181205692352552,0.11939800782676263,-0.025075949164704826,-0.011654721069882454,-0.2975165786828754,0.0,0.0
2.244488977955912,0.0004609304851360117,0.11395255271856333,-0.025293172340583057,-0.010861158793911491,-0.31882483312992654,0.0,0.0
2.2645290581162323,0.0026228200675256796,0.1080944791194834,-0.025483434367595093,-0.009513101350601808,-0.33653565183954637,0.0,0.0
2.284569138276553,0.0046606918420925465,0.10189358872834337,-0.02563757903284243,-0.007707233262366934,-0.34751044124466535,0.0,0.0
2.3046092184368736,0.00657030757612871,0.09548078670180817,-0.02575016128703251,-0.005629112709503929,-0.3583194281736394,0.0,0.0
2.3246492985971945,0.008347481819720571,0.08885871217959308,-0.025815570864630016,-0.0032704788798753616,-0.3665353582899971,0.0,0.0
2.344689378757515,0.009989027425110585,0.08207728026950066,-0.025829416197165358,-0.0006922666267670983,-0.3723213249081273,0.0,0.0
2.3647294589178354,0.011492690642745483,0.07518316088174495,-0.025788401304081863,0.002050744654174792,-0.37171545953544044,0.0,0.0
2.3847695390781563,0.01285869612222736,0.06830027397409379,-0.025692621681888888,0.004788981109648699,-0.3677716752500836,0.0,0.0
2.4048096192384767,0.01408855528145019,0.06149295796114154,-0.025543779138928614,0.007442127148013639,-0.36280949552118036,0.0,0.0
2.4248496993987976,0.015184161702187062,0.054780321036843535,-0.02534383620908198,0.009997146492331693,-0.3555950661186297,0.0,0.0
2.444889779559118,0.016148273154851168,0.04820557263320536,-0.025095750063042266,0.012404307301985705,-0.3548978326370159,0.0,0.0
2.464929859719439,0.016981090542456466,0.041640869380264865,-0.02479836316729498,0.014869344787364205,-0.3465569932059252,0.0,0.0
2.4849699398797593,0.017685783225455567,0.03523463414995502,-0.024454676673332076,0.017184324698145167,-0.3382777469902475,0.0,0.0
2.50501002004008,0.0182654832583623,0.02898500164533656,-0.024067363697218583,0.019365648805674672,-0.3283894482944709,0.0,0.0
2.5250501002004007,0.018723938059936336,0.022922740078701768,-0.023639763160690865,0.02138002682638583,-0.4180368904570446,0.0,0.0
2.5450901803607215,0.01902604365332336,0.015105279669351148,-0.02311675283156288,0.02615051645639931,-0.3674647195508195,0.0,0.0
2.565130260521042,0.019191383725482392,0.008267003607951526,-0.022524606642879474,0.029607309434170212,-0.3319406503087769,0.0,0.0
2.5851703406813624,0.019233650285162565,0.0021133279840087112,-0.02188036306397396,0.03221217894527567,-0.316959266289181,0.0,0.0
2.6052104208416833,0.01915850446369215,-0.0037572910735207436,-0.021188718964730697,0.03458220496216328,-0.2978450211402372,0.0,0.0
2.6252505010020037,0.018973206525438994,-0.009264896912657788,-0.02045648949041024,0.03661147371602283,-0.27496428916043003,0.0,0.0
2.6452905811623246,0.018686474873544454,-0.014336582594727035,-0.0196924369382122,0.03820262760990203,-0.24603388462417128,0.0,0.0
2.665330661322645,0.018309379509701913,-0.018854768192127,-0.01890866147131517,0.039188773344851366,-0.23181356776282136,0.0,0.0
2.685370741482966,0.01784724473568448,-0.023106738700871633,-0.018108536214902785,0.04000626282061932,-0.20268132371441203,0.0,0.0
2.7054108216432864,0.017311209074078883,-0.02680178308027989,-0.01730405289919919,0.04022416578517963,-0.17931043771757282,0.0,0.0
2.7254509018036073,0.016710161674429944,-0.03005236998244701,-0.016503806681134454,0.04001231090323692,-0.16019840551380624,0.0,0.0
2.7454909819639277,0.016051331059020294,-0.032941530770482404,-0.015713928940932063,0.03949388701011948,-0.14534145809975602,0.0,0.0
2.7655310621242486,0.015340288334562456,-0.03555213622289191,-0.014938128008031978,0.038790046645004295,-0.1287277209740617,0.0,0.0
2.785571142284569,0.014583294192330846,-0.037849707111580526,-0.014181228751227877,0.037844962840205054,-0.11803479359094424,0.0,0.0
2.8056112224448895,0.013784304338033338,-0.0399494927148754,-0.013444712351341172,0.03682581999433521,-0.10860745185847732,0.0,0.0
2.8256513026052104,0.012946786466115925,-0.041875893595870656,-0.01272944839240478,0.03576319794681966,-0.09822316407088327,0.0,0.0
2.845691382765531,0.012074587785251561,-0.0436099340432182,-0.012037000309948975,0.034622404122790225,-0.08503834632849433,0.0,0.0
2.8657314629258517,0.011172654874905883,-0.045096645517283956,-0.011370713616176817,0.03331433468860793,-0.08153808778103326,0.0,0.0
2.885771543086172,0.010242162687398207,-0.04652460937538379,-0.010728434126838169,0.0321139744669324,-0.07577246643585281,0.0,0.0
2.905811623246493,0.009285177045689775,-0.04784928208542157,-0.01010948414480212,0.03094749910180242,-0.07126564987132714,0.0,0.0
2.9258517034068134,0.008303279241804472,-0.04909489019426514,-0.009512596794122904,0.02984436753396074,-0.06608903613074696,0.0,0.0
2.9458917835671343,0.0072983182583392665,-0.050248049173260326,-0.008937036135689986,0.02877803292164597,-0.06093386647981558,0.0,0.0
2.9659318637274548,0.006272140820185648,-0.0513088719076809,-0.008382188193646918,0.027742397102153375,-0.0655849064389945,0.0,0.0
2.9859719438877756,0.005222772967984985,-0.05246839261003315,-0.007841833483711612,0.027017735496765338,-0.04681195033213313,0.0,0.0
3.006012024048096,0.0041573855003905185,-0.053269373379723345,-0.007323545805925401,0.025914383889310555,-0.05990352268219593,0.0,0.0
3.0260521042084165,0.0030707212283978182,-0.05433321359963501,-0.0068163988788463945,0.02535734635395032,-0.2698921390508194,0.0,0.0
3.0460921843687374,0.001880692045574985,-0.05950145914114166,-0.006194360109945278,0.031101938445055818,-0.21542510412968083,0.0,0.0
3.066132264529058,0.0006083739728614801,-0.06361590363567524,-0.0054853673250573895,0.03544963924439441,-0.1848709899661827,0.0,0.0
3.0861723446893787,-0.0007345132808070738,-0.06714436268342769,-0.004702822129642037,0.039127259770767614,-0.11881624972437635,0.0,0.0
3.106212424849699,-0.002122417817073889,-0.06939522681334077,-0.0038804291541027327,0.041119648776965244,-0.050409711333322144,0.0,0.0
