time,x,x_dot,theta,theta_dot,u,x_ref,theta_ref
0.0,-0.22543105214933146,0.013698238384911285,0.16324150998432785,-0.04915008930023961,1.546914544130773,0.0,0.0
0.02004008016032064,-0.2246004725487367,0.04152898002973786,0.16239020610297422,-0.04256519406768067,1.9146514335469864,0.0,0.0
0.04008016032064128,-0.22306981148133107,0.07653305337028121,0.16145331254387402,-0.04684467795500996,2.1036996873078913,0.0,0.0
0.06012024048096192,-0.22076516601712112,0.11523227321049775,0.16031589295663734,-0.05687097936183319,2.2270576586331345,0.0,0.0
0.08016032064128256,-0.2176381559631791,0.1563505026971022,0.15889954343691579,-0.0708174759860783,2.2124980178431515,0.0,0.0
0.1002004008016032,-0.21369403564510733,0.19720601590358852,0.15720354667554906,-0.08479983806833688,2.2774712913144173,0.0,0.0
0.12024048096192384,-0.20890699701867518,0.23935193132160798,0.155179522863256,-0.10120119061465252,2.302283674541755,0.0,0.0
0.1402805611222445,-0.2032667762323011,0.28201103931870425,0.15280012384031252,-0.11896995114717368,2.2808733586789227,0.0,0.0
0.16032064128256512,-0.1967810091358098,0.3242883548245664,0.15006237941641862,-0.13688722119469562,2.3857709856282714,0.0,0.0
0.18036072144288576,-0.18940801792270182,0.368649560655398,0.14688808681386917,-0.15871463012747236,2.327761734887971,0.0,0.0
0.2004008016032064,-0.18116945781368546,0.41192800545081815,0.14329028651233905,-0.1798900150765059,2.59279333773826,0.0,0.0
0.22044088176352705,-0.1719609906191276,0.4604233597278937,0.13909257729725763,-0.2098854607540709,2.5664687134288195,0.0,0.0
0.24048096192384769,-0.1617916087360068,0.5084690941560408,0.13428302864841135,-0.24047743244231407,2.6691346528265183,0.0,0.0
0.2605210420841683,-0.15061985304940048,0.5585877843303149,0.12877110736357616,-0.2755960642417595,2.547811976567568,0.0,0.0
0.280561122244489,-0.13849134196267812,0.606425554336118,0.12259143584566806,-0.308983575895405,2.6380347299285356,0.0,0.0
0.3006012024048096,-0.12536904803400242,0.6561146964337848,0.11565178590998375,-0.3469824967842158,2.2634488012418905,0.0,0.0
0.32064128256513025,-0.11139690905619268,0.6986069488904872,0.1081247687998764,-0.37635085550536745,2.8157780982920095,0.0,0.0
0.3406813627254509,-0.09635734235707503,0.7519783349558821,0.09964109391284201,-0.4241837443517194,2.889396316316639,0.0,0.0
0.3607214428857715,-0.08021907581735097,0.8069133269862031,0.0901031232659842,-0.4768985323428904,2.5845530736605746,0.0,0.0
0.3807615230460922,-0.06309811912541333,0.8560478345968815,0.0796267731392606,-0.5238175063361797,2.333207422898108,0.0,0.0
0.4008016032064128,-0.04508939658114641,0.9004361272133456,0.06829124141353293,-0.5667765862863835,1.5442374618945514,0.0,0.0
0.42084168336673344,-0.02649735723152938,0.9296019674808516,0.05648430907314667,-0.5903466170193129,2.541594698298839,0.0,0.0
0.4408817635270541,-0.006929520978300421,0.9783918126614479,0.043548672298050775,-0.6467818387547948,1.1898678111344574,0.0,0.0
0.4609218436873747,0.013090458502277694,1.0009989740289058,0.030191712283183292,-0.6678480007433742,2.9843686623819727,0.0,0.0
0.48096192384769537,0.0342665532934109,1.0588047395566602,0.015279841744029847,-0.7455935269576722,1.861642479153442,0.0,0.0
0.501002004008016,0.05616488382015246,1.094916526337078,-0.0006247934824484304,-0.7952317613239139,2.082389685049512,0.0,0.0
0.5210420841683366,0.0788759884419622,1.1355552310904873,-0.01775149960469684,-0.8563353061124205,-0.3517905497524527,0.0,0.0
0.5410821643286573,0.10145465146791877,1.128933151297828,-0.03478400684332986,-0.8516253619316506,-1.0101937859297796,0.0,0.0
0.561122244488978,0.12364861478475962,1.1096981658420426,-0.05144453478245902,-0.8330263969564583,-1.2828648712110315,0.0,0.0
0.5811623246492986,0.14535608852588724,1.085373687056381,-0.06767892057471112,-0.8117192896126046,-1.6448114551869832,0.0,0.0
0.6012024048096192,0.16644039305881037,1.0542152266461553,-0.08337867499592826,-0.7849877210608568,-1.9835333518659648,0.0,0.0
0.6212424849699398,0.18677383948402607,1.0166723212607844,-0.09844614889001572,-0.7533736947043737,-2.360255423887167,0.0,0.0
0.6412825651302605,0.20621383173933064,0.9719996127652291,-0.11275833140849759,-0.7156091259240933,-2.6838538210675673,0.0,0.0
0.6613226452905812,0.2246383775281254,0.9212272894397379,-0.1262191640870442,-0.6730416339273305,-2.9836443162605697,0.0,0.0
0.6813627254509018,0.2419346183964396,0.8648120434157095,-0.13874178901817197,-0.6261312465563887,-3.286668862120501,0.0,0.0
0.7014028056112224,0.2579882555036658,0.8026818553613079,-0.15023225104652232,-0.5745231014175177,-3.578264820502505,0.0,0.0
0.721442885771543,0.2726892292197725,0.7350486858053364,-0.1605973217569992,-0.5182535355238433,-3.833691401076742,0.0,0.0
0.7414829659318637,0.285941313397378,0.6626042088802753,-0.16975803575085216,-0.4580356996926477,-4.0404187932492945,0.0,0.0
0.7615230460921844,0.2976669445319566,0.5862815567289303,-0.1776561618406769,-0.3949063044912364,-4.21150928916981,0.0,0.0
0.781563126252505,0.3078020874690407,0.5067571468542046,-0.1842460551662539,-0.3294946662788499,-4.345091457430093,0.0,0.0
0.8016032064128256,0.31629692476947074,0.42474186502150296,-0.18949521985751716,-0.26245823456316336,-4.452683255701068,0.0,0.0
0.8216432865731462,0.32311134089764915,0.34072080640891966,-0.193377303397774,-0.19410417701284238,-4.520857767255884,0.0,0.0
0.8416833667334669,0.3282201227456219,0.25543909239863655,-0.19587947055429,-0.12510835782579993,-4.557927387224878,0.0,0.0
0.8617234468937875,0.3316097061736048,0.16947917139914526,-0.1969974399288203,-0.0558984687265148,-4.566815778385728,0.0,0.0
0.8817635270541082,0.3332770286265681,0.08336612264816613,-0.19673371490956285,0.013186250962872473,-4.5286207728620615,0.0,0.0
0.9018036072144289,0.33323688218417935,-0.0020073221194377017,-0.19510838904320724,0.08126629331777979,-4.473026397853213,0.0,0.0
0.9218436873747494,0.3315103708357561,-0.08632556742116432,-0.19214232020776975,0.14830344177187366,-4.386060268727426,0.0,0.0
0.9418837675350701,0.32813036107784094,-0.16900048789575778,-0.1878653240255115,0.21384980911291152,-4.246844483092705,0.0,0.0
0.9619238476953907,0.3231496289388849,-0.24903660694780153,-0.18232844017478717,0.27684419253621784,-4.071904555435212,0.0,0.0
0.9819639278557114,0.31663446265422385,-0.3257583142330517,-0.17559496581641024,0.336673717918847,-3.8747320328813295,0.0,0.0
1.002004008016032,0.3086594500254533,-0.3987506314385266,-0.16773330027120115,0.3930832772604543,-3.633487849112542,0.0,0.0
1.0220440881763526,0.2993160231191813,-0.4671713453135986,-0.15883012491937776,0.4451587675911698,-3.393845897560237,0.0,0.0
1.0420841683366733,0.2886947197862176,-0.5310651666481871,-0.1489648626083,0.4932631155538878,-3.1027090547907106,0.0,0.0
1.062124248496994,0.27690590434736184,-0.5894407719427858,-0.13824094116729027,0.5361960720504861,-2.759383785083068,0.0,0.0
1.0821643286573146,0.2640800943567994,-0.6412904995281221,-0.12678709378803987,0.5726923689625205,-2.456203393967771,0.0,0.0
1.1022044088176353,0.25033203250960967,-0.6874030923594859,-0.11470487772366472,0.6041108032187578,-2.108394201572978,0.0,0.0
1.122244488977956,0.23579375324935645,-0.7269139630126608,-0.102118426573904,0.629322557488036,-1.674483816089117,0.0,0.0
1.1422845691382766,0.22063080154070835,-0.7581475854324041,-0.0891994692497978,0.6459478662053106,-1.2882971215542542,0.0,0.0
1.1623246492985972,0.20499010717205965,-0.7820347184324358,-0.07609066321781822,0.6554403015989786,-0.8809819231911676,0.0,0.0
1.1823647294589177,0.18902685611443534,-0.7981625528812154,-0.06294642575951949,0.6572118729149369,-0.6253912164137367,0.0,0.0
1.2024048096192383,0.17283709166626834,-0.8094882224083496,-0.049832952503433184,0.6556736628043153,-0.35408064928319033,0.0,0.0
1.222444889779559,0.1565230207755915,-0.8157035445338421,-0.03682608092890319,0.6503435787264997,-0.20859130888824978,0.0,0.0
1.2424849699398797,0.14013780151868097,-0.8192609628455267,-0.02392897897322705,0.6448550977838069,0.09596889826208227,0.0,0.0
1.2625250501002003,0.12379669216386871,-0.8170554677406127,-0.01123858270682143,0.6345198133202811,0.5995272358635433,0.0,0.0
1.282565130260521,0.1076926646144881,-0.80520137746903,0.0010303952210394696,0.613448896393045,0.9495813983647856,0.0,0.0
1.3026052104208417,0.09195890066804141,-0.7866881973223344,0.012750379882953926,0.5859992330957228,1.2060295818722602,0.0,0.0
1.3226452905811623,0.07669218644293083,-0.7633357112555289,0.023845207834336118,0.5547413975691096,1.473144842486397,0.0,0.0
1.342685370741483,0.06199361895334849,-0.7349283744791167,0.03422869907534964,0.5191745620506759,1.6477256950306876,0.0,0.0
1.3627254509018036,0.047928359175734125,-0.7032629888807183,0.04386447795605648,0.4817889440353423,1.8588932108297664,0.0,0.0
1.3827655310621243,0.03457602928286661,-0.6676164946433758,0.05269023734113704,0.4412879692540279,2.0022704518198386,0.0,0.0
1.4028056112224447,0.021990007166209326,-0.6293011058328644,0.060678329097156945,0.3994045878009951,2.112688176035159,0.0,0.0
1.4228456913827654,0.010211032791152493,-0.5889487187528417,0.0678151788352004,0.3568424869021724,2.1939501872938285,0.0,0.0
1.442885771543086,-0.0007312963850656783,-0.5471164588109085,0.0740989262771099,0.3141873720954752,2.2557359171639,0.0,0.0
1.4629258517034067,-0.01081474205085768,-0.5041722832896001,0.0795337173868443,0.2717395554867197,2.3065736223753186,0.0,0.0
1.4829659318637274,-0.02002109421971385,-0.46031760844280856,0.0841247199177123,0.2295501265434,2.323997214126526,0.0,0.0
1.503006012024048,-0.02834493096716665,-0.4161918373726398,0.08789121613998152,0.18832481111346142,2.3186384343495243,0.0,0.0
1.5230460921843687,-0.03578947254542704,-0.37222707891301965,0.09086049415815298,0.14846390090857267,3.359146455519575,0.0,0.0
1.5430861723446894,-0.04194982255790281,-0.3080175006237885,0.09244582058651506,0.07926632141810373,3.0590895908682785,0.0,0.0
1.56312625250501,-0.046943499425044874,-0.24968384335710328,0.09283216682172134,0.019317311760314357,2.733192707704969,0.0,0.0
1.5831663326653307,-0.05089772222873907,-0.19771114018470987,0.09221174420180642,-0.031021130995746264,2.4288238918661595,0.0,0.0
1.6032064128256511,-0.05393100560649379,-0.15166416888773612,0.09075773932352392,-0.07270024391412472,2.176055008815349,0.0,0.0
1.6232464929859718,-0.05614149236871733,-0.11052433811117701,0.08860797708551682,-0.10748811190035498,1.9027369529115572,0.0,0.0
1.6432865731462925,-0.057635137683055684,-0.07468226571691775,0.08590784842853158,-0.1350064328492622,1.6426303351075449,0.0,0.0
1.6633266533066131,-0.05851259041115979,-0.043872636405205424,0.08279161660348036,-0.15581159125256117,1.4644541387192436,0.0,0.0
1.6833667334669338,-0.05884243247550728,-0.016492103217374356,0.07934324869321818,-0.1724183955131089,1.2697998535919048,0.0,0.0
1.7034068136272544,-0.05869958408120032,0.007142419715347854,0.07565427506989271,-0.18444868116627336,1.056384690777703,0.0,0.0
1.723446893787575,-0.05816622246133742,0.026668080993145115,0.07182571730265652,-0.1914278883618097,0.9129770827734027,0.0,0.0
1.7434869739478958,-0.05729718565760905,0.04345184018641873,0.06791696729417612,-0.19543750042401983,0.7017034858129341,0.0,0.0
1.7635270541082164,-0.056173768659842256,0.05617084988833983,0.06402656005212408,-0.1945203621026021,0.6448341145943451,0.0,0.0
1.783567134268537,-0.05481704545069185,0.06783616045752054,0.06016311271445371,-0.19317236688351833,0.5139905708113912,0.0,0.0
1.8036072144288577,-0.05327695780976648,0.07700438204626829,0.05637861274662534,-0.18922499839141851,0.4406842308848774,0.0,0.0
1.8236472945891782,-0.05158102648549826,0.08479656621341113,0.052691988153520525,-0.1843312296552407,0.47242530060682525,0.0,0.0
1.8436873747494988,-0.049715817445805804,0.09326045198462277,0.049061449884289884,-0.18152691346153213,0.3853150235052627,0.0,0.0
1.8637274549098195,-0.04771428115582899,0.10007681449884066,0.045514979863940534,-0.1773235010174676,0.32808103856924137,0.0,0.0
1.8837675350701402,-0.04559773685490544,0.10582721504617783,0.04206365270865413,-0.17256635776432014,0.21235405651380312,0.0,0.0
1.9038076152304608,-0.04341035397472284,0.10936914400912962,0.03875333489103583,-0.1655158908809151,0.18417575045589846,0.0,0.0
1.9238476953907815,-0.04116218390018093,0.11240850372709564,0.03557963193451668,-0.15868514782595755,0.15194249167976806,0.0,0.0
1.9438877755511021,-0.03886489880661673,0.11486425467821004,0.03254138251624844,-0.15191247091341187,0.12232933502229212,0.0,0.0
1.9639278557114228,-0.036529186923371176,0.11678559416227763,0.02963674948006935,-0.14523165180895448,0.10604091662070297,0.0,0.0
1.9839679358717435,-0.03416057504363996,0.11843059398656085,0.026856948678023206,-0.13899004010230712,0.06291403281315075,0.0,0.0
2.004008016032064,-0.0317750977300348,0.11927386568025808,0.02420967589287686,-0.13236363925731728,0.02984241405338848,0.0,0.0
2.024048096192385,-0.02938490373358143,0.11950969982266853,0.02169758465720706,-0.12560456178348997,0.06504558266052701,0.0,0.0
2.0440881763527052,-0.02697553861563063,0.1204682558975399,0.01928425357045914,-0.12066655433739601,-0.0014524805491400589,0.0,0.0
2.064128256513026,-0.024572260860278146,0.12016388776762427,0.016993359689649462,-0.11454469404048384,0.00300639671297349,0.0,0.0
2.0841683366733466,-0.022172675490708175,0.1199792684784985,0.014807853866241788,-0.10927529117038372,-0.045341209161981616,0.0,0.0
2.1042084168336674,-0.01979502349990279,0.11888259954026925,0.012742236572427044,-0.10328086469073718,-0.07934452937373962,0.0,0.0
2.124248496993988,-0.01745198275127101,0.11715203743158918,0.010803375028407962,-0.09694307720095409,-0.055599383457241275,0.0,0.0
2.1442885771543083,-0.015133732545118902,0.11591251030760535,0.008965156835501512,-0.09191090964532254,-0.09974934478256893,0.0,0.0
2.164328657314629,-0.01285697502012607,0.1138378762496415,0.007241817779730354,-0.08616695278855788,-0.09346753481628259,0.0,0.0
2.1843687374749496,-0.010618765467245727,0.11191047764401714,0.005618817970252639,-0.08114999047388573,-0.11322821114291334,0.0,0.0
2.2044088176352705,-0.008426350213603079,0.1096207626821324,0.004097483460310138,-0.07606672549712508,-0.1305255914242763,0.0,0.0
2.224448897795591,-0.00628604339897204,0.10701534073155193,0.0026783402185208425,-0.07095716208946476,-0.13302919262219473,0.0,0.0
2.244488977955912,-0.004198415460110582,0.10438139694307291,0.001353904436460651,-0.06622178910300958,-0.1465441216906142,0.0,0.0
2.2645290581162323,-0.0021683608127136475,0.10150273236984673,0.0001237305544126363,-0.06150869410240073,-0.15154732477361152,0.0,0.0
2.284569138276553,-0.00019747933851734737,0.098544073709815,-0.0010170119274808553,-0.05703712409467458,-0.16315578879566783,0.0,0.0
2.3046092184368736,0.001710025947062496,0.09537526427899216,-0.0020687258475666284,-0.05258569600428867,-0.17469780133598461,0.0,0.0
2.3246492985971945,0.0035499524777950014,0.09199632653662528,-0.0030312916691591424,-0.048128291079625685,-0.18198889112069852,0.0,0.0
2.344689378757515,0.005319730984344615,0.0884889253274807,-0.003906514494995719,-0.0437611412918288,-0.18163272852662216,0.0,0.0
2.3647294589178354,0.007019751337568396,0.08500101766118903,-0.004700122145560099,-0.03968038252821901,-0.186063629893007,0.0,0.0
2.3847695390781563,0.008648511991964026,0.08143803271978146,-0.005414527546404112,-0.03572027004220062,-0.19998929461664933,0.0,0.0
2.4048096192384767,0.010200783613139773,0.07761358105878734,-0.0060460901224172366,-0.03157812880065624,-0.2039783325079395,0.0,0.0
2.4248496993987976,0.011675190653153833,0.07372035200070301,-0.006596459500521324,-0.027518468905204346,-0.20554596201780045,0.0,0.0
2.444889779559118,0.013071279186954866,0.0698044266900517,-0.007068189725259427,-0.02358651123690516,-0.2054692641855389,0.0,0.0
2.464929859719439,0.014389214403801961,0.06589676084235475,-0.007464300774429241,-0.019805552458490708,-0.20504175172468542,0.0,0.0
2.4849699398797593,0.015629276709644185,0.062003115292111236,-0.007787540936436937,-0.01616200810038475,-0.20257389030024353,0.0,0.0
2.50501002004008,0.016792521810985783,0.058162255067080004,-0.008041392431444855,-0.012692574750395907,-0.19871326499186387,0.0,0.0
2.5250501002004007,0.01788052900809318,0.05440035985536985,-0.008229714552737596,-0.009416106064637034,-0.09570449762933003,0.0,0.0
2.5450901803607215,0.018933548808720398,0.05265099003136081,-0.008413950085978505,-0.009211776662045458,-0.091730904540213,0.0,0.0
2.565130260521042,0.01995318461373278,0.05098179025061913,-0.008597585216351357,-0.009181756518642585,-0.10439880904986616,0.0,0.0
2.5851703406813624,0.020934545739421533,0.0490680562844377,-0.008774367910667073,-0.008839134715785844,-0.1146327291778437,0.0,0.0
2.6052104208416833,0.021873689339750098,0.046957180016428186,-0.008939426703389486,-0.008252939636120686,-0.12527254201977303,0.0,0.0
2.6252505010020037,0.022766510821431992,0.04464107408409475,-0.00908757879005823,-0.007407604333437156,-0.13108665228237815,0.0,0.0
2.6452905811623246,0.023610783850692395,0.04221365146302017,-0.009216357541214954,-0.006438937557836256,-0.14147944269194473,0.0,0.0
2.665330661322645,0.024402489831968733,0.0395852990638169,-0.009320495884613339,-0.005206917169919218,-0.14420207932507667,0.0,0.0
2.685370741482966,0.025140596182752176,0.03690531753917212,-0.00939905798192881,-0.003928104865773494,-0.1485021743332073,0.0,0.0
2.7054108216432864,0.02582344742729348,0.03414256222706533,-0.009450023975650581,-0.002548299686088584,-0.14540431236816995,0.0,0.0
2.7254509018036073,0.026452267035755647,0.03144098042310835,-0.009475527362188471,-0.0012751693268945145,-0.14717483840134982,0.0,0.0
2.7454909819639277,0.027026371418923403,0.028705219158387925,-0.009474693323271006,4.170194587324247e-05,-0.14829115944116086,0.0,0.0
2.7655310621242486,0.027545324723301373,0.025947665218898516,-0.009446863614825034,0.001391485422298642,-0.14850035603862444,0.0,0.0
2.785571142284569,0.028009037337432145,0.02318563070653861,-0.009391740358692967,0.0027561628066033617,-0.14791519235847497,0.0,0.0
2.8056112224448895,0.02841772180327569,0.020434223292177197,-0.009309318203708821,0.004121107749207278,-0.1464382984473528,0.0,0.0
2.8256513026052104,0.028771930810829682,0.017710450377699714,-0.009199941249185597,0.0054688477261611735,-0.14416574827138012,0.0,0.0
2.845691382765531,0.029072519806658596,0.015029449791445682,-0.009064249019301538,0.0067846114942029835,-0.14136979491904894,0.0,0.0
2.8657314629258517,0.029320540937907577,0.012401056562449003,-0.008903021245902717,0.008061388669941022,-0.13773132885446765,0.0,0.0
2.885771543086172,0.029517367800251184,0.009841343117180348,-0.00871736945088319,0.009282589750976414,-0.133904403704773,0.0,0.0
2.905811623246493,0.029664440529613673,0.007353636468124357,-0.008508361372925497,0.010450403897884661,-0.12911191926845436,0.0,0.0
2.9258517034068134,0.029763569351635714,0.004956441101102018,-0.008277482267662327,0.011543955263158481,-0.12474168935590292,0.0,0.0
2.9458917835671343,0.02981639344958818,0.0026412048976232737,-0.008025832477377755,0.012582489514228577,-0.11824603237177583,0.0,0.0
2.9659318637274548,0.029825375446838352,0.00044909986250871387,-0.007755624641172717,0.013510391810251921,-0.11282689124135416,0.0,0.0
2.9859719438877756,0.029792552566140714,-0.001641144034881963,-0.007468324672255868,0.01436499844584246,-0.10420281023306774,0.0,0.0
3.006012024048096,0.02972120777824889,-0.0035672393945912336,-0.007167165456866778,0.015057960769454485,-0.09309546651566268,0.0,0.0
3.0260521042084165,0.029615589114085582,-0.005280933208165271,-0.006856745107801198,0.015521017453279044,0.009843158885857226,0.0,0.0
3.0460921843687374,0.029515776790247104,-0.004990616191923932,-0.006595320787279656,0.01307121602607706,-0.011869185778567385,0.0,0.0
3.066132264529058,0.02941322319566731,-0.005127679728989613,-0.006368543200949884,0.011338879316488585,-0.007207055646850721,0.0,0.0
3.0861723446893787,0.02930968261788702,-0.005177028889014633,-0.00617770948581306,0.009541685756841197,-0.023172328275595774,0.0,0.0
