time,x,x_dot,theta,theta_dot,u,x_ref,theta_ref
0.0,-0.05695582064852989,-0.05005282818698449,0.08815246656444031,0.02692280125237209,3.7716197872650152,0.0,0.0
0.02004008016032064,-0.056511048090089826,0.022238627922003137,0.08704929141361262,-0.05515875754138497,2.8322268049814276,0.0,0.0
0.04008016032064128,-0.05498648411958494,0.07622819852524429,0.08484445411103603,-0.11024186512882918,2.554873853696393,0.0,0.0
0.06012024048096192,-0.052489635251413556,0.12484244340856915,0.08168531911484697,-0.15795674980945296,2.2911239067374614,0.0,0.0
0.08016032064128256,-0.0491224241195708,0.16836055659213756,0.077705282689572,-0.19900182126374844,2.102477706589431,0.0,0.0
0.1002004008016032,-0.044957246665010143,0.2082588727280329,0.07298881627967646,-0.23582332049477656,1.8379242090070955,0.0,0.0
0.12024048096192384,-0.04009590192496668,0.24306723700217292,0.06766005522493641,-0.26643805273700266,1.5163991338352383,0.0,0.0
0.1402805611222445,-0.03466225109428554,0.27168254153405713,0.06187262356581113,-0.28937158295626425,1.3783597595492074,0.0,0.0
0.16032064128256512,-0.02870846250236247,0.2976894295961536,0.05567031643369599,-0.3101153566057569,1.0072248856384023,0.0,0.0
0.18036072144288576,-0.022377533698671778,0.31654644018453476,0.0492304962283617,-0.3219910102667145,0.9530406387526625,0.0,0.0
0.2004008016032064,-0.015688755905958553,0.3344388896356612,0.04254406541432049,-0.334321540702061,0.47035720715055884,0.0,0.0
0.22044088176352705,-0.008828542387892772,0.34301067590328904,0.03585080161834616,-0.3346631897987164,0.42746165170130107,0.0,0.0
0.24048096192384769,-0.001811725939209633,0.35084082243415693,0.029133556916968534,-0.3358622350688813,0.07363294187620945,0.0,0.0
0.2605210420841683,0.00522554081491819,0.35186333770639117,0.022556843025593475,-0.3288356945687529,-0.2900903164693487,0.0,0.0
0.280561122244489,0.012143195368547917,0.34588272768148637,0.016291929906047484,-0.3132456559772996,-0.0691731754597501,0.0,0.0
0.3006012024048096,0.019029219505544138,0.344301206849811,0.010170158961129813,-0.3060885472458836,-0.2738324364881037,0.0,0.0
0.32064128256513025,0.025805491565579285,0.3388136030017574,0.004272666947290582,-0.29487460069196153,-0.31263661772550516,0.0,0.0
0.3406813627254509,0.032458547391178254,0.33265279127994857,-0.0014150103309392512,-0.2843838639114917,-0.4472514359938027,0.0,0.0
0.3607214428857715,0.03893747743401004,0.3239465021415895,-0.00684997739835247,-0.27174835337066094,-0.49930917244691775,0.0,0.0
0.3807615230460922,0.04522351820950861,0.3143020387749284,-0.012036050463696223,-0.2593036532671877,-0.5808304657248399,0.0,0.0
0.4008016032064128,0.05128634001522133,0.303141090285636,-0.016958254512909162,-0.24611020246064688,-0.6748559097792484,0.0,0.0
0.42084168336673344,0.05709066077938913,0.29021603820839,-0.021592652389834995,-0.23171989384629152,-0.7755797174851736,0.0,0.0
0.4408817635270541,0.06259850493624435,0.27539220784276097,-0.025909592365693925,-0.21584699879294655,-0.8588531556234847,0.0,0.0
0.4609218436873747,0.06777861806196292,0.25900565628592837,-0.029887643955212557,-0.19890257947593157,-0.9334057785480164,0.0,0.0
0.48096192384769537,0.07260305388300672,0.24122179105219035,-0.033508354379253216,-0.18103552120203303,-0.9929791556817601,0.0,0.0
0.501002004008016,0.07704961048896355,0.22232783029784153,-0.03675978721902928,-0.16257164198880317,-1.047327097052325,0.0,0.0
0.5210420841683366,0.08109802035667678,0.20242049338566095,-0.03963074008512181,-0.14354764330462638,-1.0304004158654627,0.0,0.0
0.5410821643286573,0.08475571778656521,0.18288487149442148,-0.04214927249294779,-0.12592662039129884,-1.0803668297420599,0.0,0.0
0.561122244488978,0.08800393527905093,0.1624108746242859,-0.04430212341008097,-0.10764254585665901,-1.1124074224588336,0.0,0.0
0.5811623246492986,0.0908307948354198,0.1413429778184437,-0.04608420057992032,-0.08910385849196752,-1.1335853431495755,0.0,0.0
0.6012024048096192,0.09322855003694461,0.11988776007624032,-0.04749441618947489,-0.0705107804777285,-1.14561805926727,0.0,0.0
0.6212424849699398,0.09519291522727027,0.09821825951628357,-0.04853467326088181,-0.0520128535703458,-1.1491300574321803,0.0,0.0
0.6412825651302605,0.09672282212482386,0.07649534487767909,-0.04920951054160036,-0.03374186403592764,-1.1444235366365305,0.0,0.0
0.6613226452905812,0.09782030304751124,0.05487404613436902,-0.04952595321727279,-0.01582213378362138,-1.1289094320934343,0.0,0.0
0.6813627254509018,0.09849150300173928,0.033559997711402056,-0.04949506912291881,0.0015442047176988973,-1.1064708434312902,0.0,0.0
0.7014028056112224,0.09874516787952956,0.012683243889513807,-0.049129770607341625,0.018264925778859083,-1.0810159022391117,0.0,0.0
0.721442885771543,0.09859112351488827,-0.00770221823206374,-0.048442614167931726,0.034357821970494765,-1.0424028260107352,0.0,0.0
0.7414829659318637,0.09804423636879356,-0.027344357304736108,-0.04745180579117505,0.049540418837834,-0.9979569868557234,0.0,0.0
0.7615230460921844,0.09712156098173576,-0.046133769352889945,-0.04617703894313996,0.06373834240175465,-0.9500379246330972,0.0,0.0
0.781563126252505,0.0958414253080204,-0.0640067836857684,-0.044638242750768255,0.07693980961858518,-0.8911977493870359,0.0,0.0
0.8016032064128256,0.09422634263891556,-0.08075413345524186,-0.04286006186233279,0.08890904442177322,-0.8350094873377201,0.0,0.0
0.8216432865731462,0.09229772322238204,-0.09643097082667582,-0.0408640838937263,0.09979889843032469,-0.7726552780960212,0.0,0.0
0.8416833667334669,0.09007932112348928,-0.11092010494463833,-0.038674129957135414,0.10949769682954417,-0.7069048634683512,0.0,0.0
0.8617234468937875,0.08759616060260464,-0.12415802604423164,-0.03631478841568609,0.11796707707246605,-0.6432519192716436,0.0,0.0
0.8817635270541082,0.08487239976075468,-0.13618804209249816,-0.03380836029316729,0.12532140612593987,-0.5785968261231205,0.0,0.0
0.9018036072144289,0.08193254639499332,-0.14699266828806795,-0.031176812103760373,0.1315774094703459,-0.5053197515214886,0.0,0.0
0.9218436873747494,0.07880443757432543,-0.15640544103339488,-0.02844636972609473,0.1365221188832823,-0.4342303980839494,0.0,0.0
0.9418837675350701,0.07551502931545427,-0.16447041294355777,-0.02564136477485954,0.14025024756175936,-0.35944095887224325,0.0,0.0
0.9619238476953907,0.07209270091667208,-0.1711164199391098,-0.022787830189316058,0.14267672927717423,-0.2989546685649216,0.0,0.0
0.9819639278557114,0.06856023731865428,-0.1766231799008903,-0.019903136016588493,0.14423470863637824,-0.24369563096371735,0.0,0.0
1.002004008016032,0.06493837531263177,-0.1810931003011249,-0.017001404153192512,0.14508659316979905,-0.1768293124403229,0.0,0.0
1.0220440881763526,0.06125237656504339,-0.18429993737941922,-0.014103442165433048,0.14489809938797316,-0.3841624057476132,0.0,0.0
1.0420841683366733,0.05742050600912188,-0.19159352779607558,-0.011069704576556642,0.15168687944382026,-0.2752179984069456,0.0,0.0
1.062124248496994,0.053484406908119175,-0.19680495505013507,-0.007944779274861466,0.15624626508475883,-0.12683654682625556,0.0,0.0
1.0821643286573146,0.04950108648581444,-0.19916602111523704,-0.004795754099759134,0.1574512587551166,-0.05567752927934673,0.0,0.0
1.1022044088176353,0.04549741157425716,-0.20018374557786417,-0.0016443979247697488,0.15756780874946927,0.03455197367786042,0.0,0.0
1.122244488977956,0.04150769028864693,-0.1994860642805112,0.0014763778968782467,0.15603879108239976,0.10235698974041418,0.0,0.0
1.1422845691382766,0.03755748887980347,-0.19751007044217292,0.0045465866712664366,0.1535104387194095,0.19869205562196163,0.0,0.0
1.1623246492985972,0.03368352106373868,-0.1936983908032394,0.007529234801303793,0.14913240650186782,0.299841972116891,0.0,0.0
1.1823647294589177,0.02992440411677341,-0.1879558473482636,0.010383962943121359,0.14273640709087826,0.3665890267111899,0.0,0.0
1.2024048096192383,0.026305366573392632,-0.18095187716903882,0.013089733011316367,0.13528850340975038,0.422679986714285,0.0,0.0
1.222444889779559,0.02284752086080043,-0.17289228562961012,0.015630804415960084,0.12705357023218591,0.48285101475330117,0.0,0.0
1.2424849699398797,0.0195736182007423,-0.16369513300290658,0.017988015247422422,0.11786054157311696,0.5264386471943678,0.0,0.0
1.2625250501002003,0.016499990842283208,-0.1536813679229546,0.020150747102444817,0.10813659275111967,0.5654858474231356,0.0,0.0
1.282565130260521,0.01364125463368153,-0.14293681043008388,0.022109813338819354,0.09795331181872682,0.5951797453517035,0.0,0.0
1.3026052104208417,0.01100843371587744,-0.13164104589020442,0.023860214989573997,0.08752008253773212,0.6242570061710414,0.0,0.0
1.3226452905811623,0.008612371241171665,-0.1198031237352888,0.025395998950967127,0.07678919806965652,0.6452164110710351,0.0,0.0
1.342685370741483,0.006460804119276556,-0.1075783560947554,0.026714606301482688,0.06593036752577795,0.6606201947142736,0.0,0.0
1.3627254509018036,0.004559363681874895,-0.09507202187008305,0.027815356860369234,0.05503752794432737,0.681415839985185,0.0,0.0
1.3827655310621243,0.0029158477250200935,-0.08217579784274008,0.028693042979032975,0.04388430593318712,0.6918518955016844,0.0,0.0
1.4028056112224447,0.0015340757633950462,-0.06908859808125237,0.029347106419896674,0.032703172043185,0.6879681556171215,0.0,0.0
1.4228456913827654,0.0004123440127810109,-0.05608658753070177,0.0297839494822148,0.021842153115906357,0.6734827807286764,0.0,0.0
1.442885771543086,-0.0004551255455535715,-0.04337347791672912,0.030014800883937758,0.01154257008614781,0.6532128941589791,0.0,0.0
1.4629258517034067,-0.0010763087324702908,-0.031059159345835967,0.030052970081005728,0.0019084598533985805,0.6021392405318827,0.0,0.0
1.4829659318637274,-0.0014711455406276374,-0.019741840407867334,0.029928559499441138,-0.006220529078229557,0.5822697913218192,0.0,0.0
1.503006012024048,-0.001647353301317256,-0.008810388034480924,0.029652400710547193,-0.013807939444697201,0.5698093211164026,0.0,0.0
1.5230460921843687,-0.0016097147399712537,0.001881928067300108,0.0292300353944487,-0.021118265804924558,1.1515985187466768,0.0,0.0
1.5430861723446894,-0.0011310933435326807,0.023931069821928653,0.028318632169072076,-0.04557016126883122,1.0150316537218866,0.0,0.0
1.56312625250501,-0.0002645145615165534,0.04332893910080637,0.026992276837408093,-0.06631776658319911,0.913586807237496,0.0,0.0
1.5831663326653307,0.0009508201202941235,0.06076673409053385,0.025301901046200257,-0.08451878956039184,0.820997721935232,0.0,0.0
1.6032064128256511,0.002479269020378517,0.07642244500421969,0.02329096391364086,-0.10054685662796992,0.7144260851455814,0.0,0.0
1.6232464929859718,0.004279825766517312,0.09002783730693978,0.021009083540288846,-0.11409401866760065,0.610898224560078,0.0,0.0
1.6432865731462925,0.006312748552852401,0.1016461393167544,0.01850239585380843,-0.12533438432402066,0.5154124314509362,0.0,0.0
1.6633266533066131,0.008541497213681505,0.11143743304145522,0.015810923004277107,-0.13457364247656625,0.4311986619046376,0.0,0.0
1.6833667334669338,0.010933982186177688,0.11962424862480911,0.012966936060531505,-0.14219934718728014,0.334025502069418,0.0,0.0
1.7034068136272544,0.013453099788618236,0.12595588012202738,0.01000933059974273,-0.14788027303943876,0.15583608129619403,0.0,0.0
1.723446893787575,0.01603016368557108,0.12885319484764216,0.007023681459720311,-0.14928245700112092,-0.017571111693930053,0.0,0.0
1.7434869739478958,0.0185983607818016,0.12840985481152611,0.004092596997216727,-0.14655422312517918,-0.14388757778734182,0.0,0.0
1.7635270541082164,0.02110923790292781,0.12554385605631047,0.0012714874461630266,-0.14105547755268502,-0.20425491139931215,0.0,0.0
1.783567134268537,0.023540045481232747,0.12154037891524688,-0.0014221212316207258,-0.13468043388918763,-0.26851620524267894,0.0,0.0
1.8036072144288577,0.025866478180763708,0.11632163497654803,-0.003967622386786507,-0.12727505775828907,-0.3211868468166952,0.0,0.0
1.8236472945891782,0.028068711544445662,0.11011166818409764,-0.006350257354331229,-0.11913174837723607,-0.3621140751130235,0.0,0.0
1.8436873747494988,0.030131457379180587,0.10313729173674625,-0.008561111872215164,-0.11054272589419671,-0.4023575032870948,0.0,0.0
1.8637274549098195,0.03203964542631254,0.0954094023565978,-0.010590590287561395,-0.10147392076731153,-0.42757175536197584,0.0,0.0
1.8837675350701402,0.0337840184725563,0.08721865231218795,-0.01243674606509442,-0.09230778887665125,-0.45425529148089344,0.0,0.0
1.9038076152304608,0.03535469362358959,0.07853375755166458,-0.01409561838317517,-0.08294361590403745,-0.47375146460343387,0.0,0.0
1.9238476953907815,0.036744539129186904,0.06949227527986568,-0.015566270308226724,-0.07353259625257773,-0.486705971047616,0.0,0.0
1.9438877755511021,0.03794892206957567,0.060219147019438354,-0.01685040463573828,-0.06420671637557777,-0.4938011368865173,0.0,0.0
1.9639278557114228,0.03896544251412709,0.05082602222757102,-0.01795197501730158,-0.055078519078164814,-0.4979995274611994,0.0,0.0
1.9839679358717435,0.03979277855142617,0.041366801864954075,-0.018875477749324732,-0.046175136601157664,-0.49714604062669254,0.0,0.0
2.004008016032064,0.04043152849694703,0.031937497276043114,-0.019627240291170172,-0.03758812709227196,-0.4874342889765773,0.0,0.0
2.024048096192385,0.040885697982982395,0.022708474301768235,-0.0202176870569848,-0.02952233829073137,-0.7090587140093123,0.0,0.0
2.0440881763527052,0.041068975585246366,0.009163880113198665,-0.020520930443971994,-0.015162169349359694,-0.7145691591400344,0.0,0.0
2.064128256513026,0.040979298392957456,-0.004483859614445668,-0.02053566276570585,-0.0007366160866927093,-0.6225248887650834,0.0,0.0
2.0841683366733466,0.04065258769544899,-0.016335534875423434,-0.02031580762458163,0.010992757056210842,-0.4782718238782686,0.0,0.0
2.1042084168336674,0.040145069933002465,-0.02537588812232598,-0.0199443413414577,0.018573314156196657,-0.399319608170723,0.0,0.0
2.124248496993988,0.03948744675172411,-0.0328811590639179,-0.01946509402559649,0.023962365793060495,-0.36533654771033847,0.0,0.0
2.1442885771543083,0.03869284130971251,-0.03973027210057997,-0.0188949166000025,0.028508871279699515,-0.33071990197032963,0.0,0.0
2.164328657314629,0.037774597961900046,-0.04591216739062317,-0.018250457345391602,0.03222296273054489,-0.31112189709796667,0.0,0.0
2.1843687374749496,0.03674017929402751,-0.05172093339362672,-0.01753911266698081,0.03556723392053956,-0.27853947480211233,0.0,0.0
2.2044088176352705,0.03560209548874012,-0.056904190264369346,-0.016775451591802413,0.038183053758919824,-0.25034707615294366,0.0,0.0
2.224448897795591,0.03437112872551688,-0.06154833816116196,-0.015971146115024475,0.04021527383889697,-0.21814638609754844,0.0,0.0
2.244488977955912,0.03305961369726344,-0.06557575141267179,-0.01513995679911591,0.04155946579542821,-0.2017848599422712,0.0,0.0
2.2645290581162323,0.03167369670215804,-0.06929584975527019,-0.014286210966296802,0.042687291640955416,-0.17908564727285636,0.0,0.0
2.284569138276553,0.030221990692619643,-0.0725853004769199,-0.013417800910313834,0.04342050279914841,-0.15602772957148325,0.0,0.0
2.3046092184368736,0.028713244429747858,-0.07543731314358926,-0.0125427366371167,0.04375321365985667,-0.1308342455929877,0.0,0.0
2.3246492985971945,0.027157038146621442,-0.07781031415632081,-0.011670235688882138,0.04362504741172809,-0.11217376979622144,0.0,0.0
2.344689378757515,0.025560403521415108,-0.07983173126031667,-0.01080571080025784,0.04322624443121488,-0.10670531631512611,0.0,0.0
2.3647294589178354,0.023925226710879766,-0.08175884052676705,-0.009946908775090156,0.04294010125838422,-0.08997951915201546,0.0,0.0
2.3847695390781563,0.022257788386095278,-0.08337191623922437,-0.009098197424975224,0.04243556750574658,-0.07351621990347582,0.0,0.0
2.4048096192384767,0.020564269690291404,-0.08467593479019375,-0.00826385481980055,0.04171713025873374,-0.058930879034225725,0.0,0.0
2.4248496993987976,0.018850123070496955,-0.0857073309897224,-0.007447151274032572,0.040835177288398895,-0.04495684851833407,0.0,0.0
2.444889779559118,0.017120567486938677,-0.0864777791779139,-0.006651110853832323,0.03980202101001241,-0.03182462887093089,0.0,0.0
2.464929859719439,0.015380499330332018,-0.08700340783033297,-0.005878395588101056,0.03863576328656337,-0.02023382922416237,0.0,0.0
2.4849699398797593,0.013634220177524508,-0.0873139576403755,-0.005130912985611642,0.0373741301244707,-0.0005948257128837557,0.0,0.0
2.50501002004008,0.011889179449751035,-0.08725203638867368,-0.004415437627672496,0.0357737678969573,0.006158193228391314,0.0,0.0
2.5250501002004007,0.010147807305421506,-0.08706860721647647,-0.0037314081264853156,0.03420147505935903,-0.2746230934585676,0.0,0.0
2.5450901803607215,0.008300339643782658,-0.09237338308194239,-0.0029102627835111937,0.041057267148706104,-0.1996195362282137,0.0,0.0
2.565130260521042,0.006375809371773547,-0.09622651360045553,-0.001990697847756822,0.04597824678771859,-0.12836983723275697,0.0,0.0
2.5851703406813624,0.004401756381361711,-0.09870264952059182,-0.001008593364418615,0.04910522416691034,-0.09158294793128074,0.0,0.0
2.6052104208416833,0.0023922543924701535,-0.10047509944457787,2.072455321978743e-05,0.05146589588192012,-0.027615538263722872,0.0,0.0
2.6252505010020037,0.00037197016131690526,-0.10101421155766241,0.0010663275164666712,0.052280148162344185,0.03275665812359329,0.0,0.0
2.6452905811623246,-0.0016358371608126915,-0.10039036610647983,0.0020994929049111223,0.05165826942222256,0.08463091666043068,0.0,0.0
2.665330661322645,-0.0036112209848521122,-0.09876919120197103,0.0030963908297856084,0.04984489624372429,0.10177865510112526,0.0,0.0
2.685370741482966,-0.0055477755361799455,-0.09682772756639169,0.004053276881209928,0.04784430257121596,0.12476874615163588,0.0,0.0
2.7054108216432864,-0.007436803752814095,-0.0944514108317075,0.004962736860299545,0.045472998954480856,0.14448810165290513,0.0,0.0
2.7254509018036073,-0.009270871325147242,-0.09170337861665738,0.005818970927297092,0.042811703349877356,0.1606427398475066,0.0,0.0
2.7454909819639277,-0.011043919750548803,-0.08865242127007807,0.006617928976964972,0.039947902483394006,0.17232325279950086,0.0,0.0
2.7655310621242486,-0.012751620041820653,-0.08538501456359252,0.007357817029054078,0.036994402604455266,0.1833419773172385,0.0,0.0
2.785571142284569,-0.01438988453916738,-0.08191322486733633,0.008036855814108365,0.03395193925271439,0.185814607440262,0.0,0.0
2.8056112224448895,-0.015957943044854806,-0.07840292528437136,0.00865788147432934,0.03105128301104882,0.19412115928983179,0.0,0.0
2.8256513026052104,-0.01745273219783465,-0.07473945764899213,0.00921995177876955,0.028103515222010416,0.19937318691210779,0.0,0.0
2.845691382765531,-0.018872363690782715,-0.07098157464740332,0.009723539484848904,0.025179385303967766,0.2047914268269392,0.0,0.0
2.8657314629258517,-0.020214867594053523,-0.06712519516354036,0.010168651334157374,0.022255592465423565,0.20705378560414028,0.0,0.0
2.885771543086172,-0.021479488714213603,-0.06323105600800395,0.010556771307991321,0.01940599869169734,0.2071372104131678,0.0,0.0
2.905811623246493,-0.022666305788248974,-0.05934085370176861,0.010890298498569494,0.016676359528908672,0.20729806998868194,0.0,0.0
2.9258517034068134,-0.02377535168269359,-0.05545229472223067,0.011171242391355534,0.014047194639301997,0.20690707799343167,0.0,0.0
2.9458917835671343,-0.024806859531335393,-0.05157539243209011,0.011401603625908602,0.011518061727653435,0.2059567090437259,0.0,0.0
2.9659318637274548,-0.02576126624496967,-0.04772033568171385,0.011583391010491087,0.009089369229124237,0.20319136578495114,0.0,0.0
2.9859719438877756,-0.026639703049148596,-0.043921840208946274,0.011719368622891671,0.006798880620029238,0.1998261689422891,0.0,0.0
3.006012024048096,-0.0274435221091617,-0.040190953000655186,0.01181236248012954,0.004649692861893465,0.1957872490271913,0.0,0.0
3.0260521042084165,-0.028174326166121297,-0.036540202847979916,0.01186532157152593,0.0026479545698195215,0.039018873383976305,0.0,0.0
3.0460921843687374,-0.028893304882769713,-0.03594893583242079,0.011970277856617364,0.005247814254571657,0.08250322030816416,0.0,0.0
