time,x,x_dot,theta,theta_dot,u,x_ref,theta_ref
0.0,1.8166044118480182,0.05358641812711987,-0.14961170128471918,0.06539761718614898,5.913895831211768,0.0,0.0
0.02004008016032064,1.8200223197618,0.17089539568908418,-0.15265742216426442,-0.15228604397726178,5.759108277795792,0.0,0.0
0.04008016032064128,1.825726727518759,0.28522038784795345,-0.15998447386974296,-0.36635258527392706,3.081764063017687,0.0,0.0
0.06012024048096192,1.8326760716154327,0.34746720483368715,-0.17009004722631924,-0.5052786678288136,-4.324458168381693,0.0,0.0
0.08016032064128256,1.8379883053744994,0.26561168795334233,-0.1787715955568261,-0.4340774165253421,-0.21363840024850944,0.0,0.0
0.1002004008016032,1.8432667539684315,0.2639224296966007,-0.18844823864166327,-0.48383215424185844,-0.6835749008850778,0.0,0.0
0.12024048096192384,1.8483308945677241,0.2532070299646265,-0.19891014888022734,-0.5230955119282031,-1.328836423795622,0.0,0.0
0.1402805611222445,1.8529322778107258,0.2300691621500834,-0.2098532033733364,-0.5471527246554528,-0.27964400109599996,0.0,0.0
0.16032064128256512,1.8574818853426476,0.22748037659609313,-0.22194448047908358,-0.6045638552873586,-6.081249049137508,0.0,0.0
0.18036072144288576,1.8597265767026963,0.11223456800243564,-0.23195883215318291,-0.5007175837049668,-4.159459655754651,0.0,0.0
0.2004008016032064,1.86041714802465,0.03452856609769277,-0.2410567302005911,-0.4548949023704098,-4.4047711739078155,0.0,0.0
0.22044088176352705,1.859461210495951,-0.04779687643495677,-0.2491606224976972,-0.40519461485530506,-5.571390488422432,0.0,0.0
0.24048096192384769,1.8564082047470603,-0.15265028744453452,-0.2556670005736316,-0.3253189037967203,-3.7883584612152843,0.0,0.0
0.2605210420841683,1.8519530492212835,-0.22275777628883983,-0.261625859665953,-0.2979429546160671,-5.677684451433582,0.0,0.0
0.280561122244489,1.845363920545587,-0.32945643378482264,-0.2660145371227373,-0.21943387283921795,-4.204827905531472,0.0,0.0
0.3006012024048096,1.8372143003466583,-0.4074810099464297,-0.269691037766826,-0.18382503220443536,-6.09813922885723,0.0,0.0
0.32064128256513025,1.8267703698532662,-0.5221965246696058,-0.27161819395730014,-0.0963578095237048,-4.624351180621322,0.0,0.0
0.3406813627254509,1.8146049915082147,-0.6082689172525783,-0.27263596334055695,-0.0508884691628398,-4.634827984184654,0.0,0.0
0.3607214428857715,1.8007144476111019,-0.6945271948556471,-0.2727454452855891,-0.005474097251605338,-4.950323953632516,0.0,0.0
0.3807615230460922,1.784976320397437,-0.7869063606832519,-0.27177060720031204,0.048741904263851075,-4.979899874175537,0.0,0.0
0.4008016032064128,1.767378811219596,-0.8798754588920465,-0.2696881678261261,0.10412196870929864,-4.80252196901045,0.0,0.0
0.42084168336673344,1.7479900824006873,-0.9694364409454344,-0.2665832697247607,0.1552449050682688,-4.808366533228958,0.0,0.0
0.4408817635270541,1.7268068296627157,-1.0591626368985851,-0.26243133233703614,0.20759686938622857,-4.724598611531585,0.0,0.0
0.4609218436873747,1.7038601915502551,-1.1473319056230329,-0.2572509665428884,0.2590182897073844,-4.5732082658548485,0.0,0.0
0.48096192384769537,1.6792072389399642,-1.232647630514555,-0.25109197197639244,0.30794972832480005,-4.45564152464538,0.0,0.0
0.501002004008016,1.6528916095878856,-1.315781467603923,-0.2439787224159547,0.35566247802188716,-4.321880823518584,0.0,0.0
0.5210420841683366,1.624962947139764,-1.396433122406078,-0.23593856327800813,0.4020079568973282,-5.859727539778479,0.0,0.0
0.5410821643286573,1.5948209193836564,-1.5071013878053718,-0.22604597784434202,0.4946292716833059,-5.188916007881076,0.0,0.0
0.561122244488978,1.5627227648980087,-1.6049077242823861,-0.21461267046398513,0.571665369017844,-4.838645879963846,0.0,0.0
0.5811623246492986,1.5288007797851002,-1.6960992556454215,-0.20175952313174883,0.6426573666118158,-4.3089409543940445,0.0,0.0
0.6012024048096192,1.4932567567214396,-1.777201153183027,-0.18770173873698426,0.7028892197382279,-3.889855277886549,0.0,0.0
0.6212424849699398,1.456249285488515,-1.85037356164624,-0.17258521728444332,0.755826072627047,-3.2304135739839803,0.0,0.0
0.6412825651302605,1.4180304136613984,-1.9109435913558344,-0.15668884783546919,0.7948184724487061,-3.0565920685527024,0.0,0.0
0.6613226452905812,1.3786630827271031,-1.968366546714764,-0.140008948465413,0.8339949685028085,-2.607915030137876,0.0,0.0
0.6813627254509018,1.3383171843497534,-2.017294918867484,-0.12269652217066306,0.8656213147374974,-2.302193904780013,0.0,0.0
0.7014028056112224,1.2971068848213207,-2.060514976421631,-0.10481724272680634,0.8939639721928356,-1.8524756689101913,0.0,0.0
0.721442885771543,1.2552024501136136,-2.0952217353853566,-0.08651793491252043,0.914965390714296,-1.262364034433069,0.0,0.0
0.7414829659318637,1.2128289284052485,-2.1186760854182625,-0.06802583993813024,0.9246047487195093,-0.6234038284348936,0.0,0.0
0.7615230460921844,1.1702305190733302,-2.1299204665959177,-0.0495968378129955,0.9214501062567372,0.3305396383170556,0.0,0.0
0.781563126252505,1.1277744410248443,-2.122803902424298,-0.03167226467435949,0.8962286569318006,0.6650436733217588,0.0,0.0
0.8016032064128256,1.0855864367862078,-2.109400211931822,-0.014335435024346563,0.8668414825006463,1.0301288911610131,0.0,0.0
0.8216432865731462,1.0438043079332835,-2.089106442646218,0.0023087875115534173,0.832211126794999,1.3789376364795591,0.0,0.0
0.8416833667334669,1.0025596456997325,-2.0622331116775423,0.01816088300502504,0.792604774673581,1.6312691171322586,0.0,0.0
0.8617234468937875,0.9619465501266258,-2.030654778655337,0.03317308978254998,0.750610338876247,1.8680800688263675,0.0,0.0
0.8817635270541082,0.922053233139239,-1.9946658493693386,0.04730179687122381,0.7064353544336915,2.094126157544167,0.0,0.0
0.9018036072144289,0.8829638895122326,-1.954467181350322,0.060504502420467246,0.6601352774621719,2.322193171582564,0.0,0.0
0.9218436873747494,0.8447637020704962,-1.910009372086816,0.07273207311947705,0.6113785349504904,2.4908167967613197,0.0,0.0
0.9418837675350701,0.8075148846302475,-1.8624408720124368,0.08396427142365172,0.5616099152087334,2.58986943529285,0.0,0.0
0.9619238476953907,0.7712527561005206,-1.8131064264863452,0.09421539359843788,0.5125561087393081,2.6212427542763552,0.0,0.0
0.9819639278557114,0.7359864964798264,-1.76331298103471,0.10353308809957358,0.465884725056785,2.7024394621301577,0.0,0.0
1.002004008016032,0.7017449717339177,-1.7120762372954366,0.11193017404448517,0.41985429724557943,2.791654521314719,0.0,0.0
1.0220440881763526,0.668560427233803,-1.6592272250057352,0.11940906083344831,0.37394433944815675,4.894552994109345,0.0,0.0
1.0420841683366733,0.6372503422331504,-1.565504250032637,0.12479804394723731,0.2694491556894506,4.517928722980782,0.0,0.0
1.062124248496994,0.6076660903849804,-1.4792125924084938,0.12835146689602964,0.1776711474396164,4.097575709197551,0.0,0.0
1.0821643286573146,0.5796426408158163,-1.401172478458205,0.13033656092648488,0.0992547015227615,3.760299690365663,0.0,0.0
1.1022044088176353,0.553047880930454,-1.329737994268117,0.1309618580726939,0.031264857310450936,3.3520165636338577,0.0,0.0
1.122244488977956,0.5277224741797032,-1.2662703375375413,0.13046798609576962,-0.024693598846212986,2.8174995264913485,0.0,0.0
1.1422845691382766,0.5034582433839293,-1.213211539788696,0.12916136358269387,-0.06533112565378713,2.4081674782922065,0.0,0.0
1.1623246492985972,0.480096046742694,-1.1681098320617633,0.12727068435580313,-0.09453396134453713,2.0372080714325143,0.0,0.0
1.1823647294589177,0.4574918631389696,-1.130209180186221,0.12499875303624686,-0.11359656597781348,1.7942512704052815,0.0,0.0
1.2024048096192383,0.4355516626634462,-1.0970100237761717,0.12247185730565376,-0.12634478652965536,1.6824846621157998,0.0,0.0
1.222444889779559,0.41423261675801165,-1.0659522952717275,0.11973867322071981,-0.1366592042466974,1.48941646742646,0.0,0.0
1.2424849699398797,0.39346025869165085,-1.0386179033180398,0.11689378091935874,-0.1422446150680534,1.3025145861809269,0.0,0.0
1.2625250501002003,0.373162548031685,-1.0148855329982922,0.11402756073532822,-0.14331100920152637,1.2057994574416229,0.0,0.0
1.282565130260521,0.35330260100519884,-0.9929973513243083,0.11117797905903001,-0.14247908381491026,0.9953287529960874,0.0,0.0
1.3026052104208417,0.3337991744727712,-0.9751713266213822,0.10844922342570883,-0.13643778166605944,0.9956634245393262,0.0,0.0
1.3226452905811623,0.3146531724958855,-0.9573000988442849,0.10582384825464672,-0.13126875855310569,0.8478553657236254,0.0,0.0
1.342685370741483,0.29580770903507414,-0.9422731730405683,0.10337116274268188,-0.1226342755982421,0.6913766615953393,0.0,0.0
1.3627254509018036,0.27720246264752374,-0.9302623193775195,0.10116666046398518,-0.11022511393483514,0.6934838157814361,0.0,0.0
1.3827655310621243,0.258838874771832,-0.9181793937845869,0.09919522392652728,-0.09857182687289481,0.5388219225646466,0.0,0.0
1.4028056112224447,0.2406571907062162,-0.9090842032807895,0.09753439071234858,-0.08304166070893512,0.7147312205906454,0.0,0.0
1.4228456913827654,0.22272647247581212,-0.8965359115202036,0.09607136763156808,-0.07315115403902506,0.49871814634440514,0.0,0.0
1.442885771543086,0.20496289614612187,-0.8881788164845129,0.09492262245574194,-0.057437258791307205,0.7422155756633345,0.0,0.0
1.4629258517034067,0.18746174021204606,-0.8750577967037901,0.09393922260172109,-0.0491699927010425,0.4868315970985795,0.0,0.0
1.4829659318637274,0.17012368981742004,-0.8669025197313006,0.09326360137917783,-0.033781061127163,0.8095807838391372,0.0,0.0
1.503006012024048,0.15307479959022016,-0.8524445113599943,0.09270364793415209,-0.027997672251287117,0.3819319185416303,0.0,0.0
1.5230460921843687,0.13614845346545082,-0.8463173062384667,0.09250475898666993,-0.009944447374108142,-1.6837670281112704,0.0,0.0
1.5430861723446894,0.118539119585059,-0.8804666940195911,0.09386814763336312,0.0681694323346599,-0.9159918092733675,0.0,0.0
1.56312625250501,0.10054584864998645,-0.899663546753628,0.09635533864325557,0.12435955049462255,0.343916940922825,0.0,0.0
1.5831663326653307,0.08265929150401807,-0.8943278572984182,0.09924864074478931,0.14466510507668728,-0.09191994953598381,0.0,0.0
1.6032064128256511,0.06470868935073092,-0.8975301076643576,0.10281973838053808,0.17855488178743847,-0.24455948590276427,0.0,0.0
1.6232464929859718,0.04663354882662708,-0.9037570262051915,0.10717967932458178,0.2179970472021845,0.8040475795690445,0.0,0.0
1.6432865731462925,0.02884154397119999,-0.8896002427713546,0.11174623529114959,0.22832779832839054,-0.17205998449044713,0.0,0.0
1.6633266533066131,0.010950835383074342,-0.8945354294062823,0.11711512318446266,0.2684443946656531,1.161864778125336,0.0,0.0
1.6833667334669338,-0.006520001582690525,-0.8735418482882433,0.12254554324140267,0.27152100284700037,0.3556535802262425,0.0,0.0
1.7034068136272544,-0.023886766600974683,-0.8683382509142079,0.12853943954425737,0.29969481514273555,1.8082480247133543,0.0,0.0
1.723446893787575,-0.040584924463564806,-0.8349078931295063,0.1342925817437831,0.28765710997628724,1.9921597856047777,0.0,0.0
1.7434869739478958,-0.056544473741146836,-0.7979774638791016,0.1397352494918559,0.272133387403639,2.070860507853441,0.0,0.0
1.7635270541082164,-0.07173634091196045,-0.7595933585406808,0.1448567907722057,0.25607706401748975,2.2873353269225594,0.0,0.0
1.783567134268537,-0.08607768432706289,-0.7170671707551223,0.149564948856066,0.23540790419301424,2.3738937823990165,0.0,0.0
1.8036072144288577,-0.0995361791035414,-0.6729247388239255,0.1538400555854344,0.21375533646842032,2.510591289072185,0.0,0.0
1.8236472945891782,-0.11205984794557074,-0.6261834421014666,0.1576308023344658,0.18953733745157014,2.6593500960007868,0.0,0.0
1.8436873747494988,-0.12359188391894715,-0.5766017986688208,0.160875917734755,0.16225577001445932,2.807997388857031,0.0,0.0
1.8637274549098195,-0.13407537257720828,-0.5241744329130567,0.1635107781571483,0.13174302111966485,2.9595213635414623,0.0,0.0
1.8837675350701402,-0.14345210550432805,-0.46883664635598793,0.16546523825482348,0.09772300488375979,3.0703515573959366,0.0,0.0
1.9038076152304608,-0.15167952400969317,-0.4113709252682563,0.16668823222874216,0.06114969869593333,3.1112653615145525,0.0,0.0
1.9238476953907815,-0.15874207725785228,-0.3531276624079546,0.1671642076656419,0.023798771844988034,3.11085137452664,0.0,0.0
1.9438877755511021,-0.1646400786136952,-0.29490006779214584,0.16689652397838867,-0.013384184362661582,3.1102474375376996,0.0,0.0
1.9639278557114228,-0.16937368473087094,-0.2366803058587867,0.16588378394066838,-0.050637001886014506,3.082109554657751,0.0,0.0
1.9839679358717435,-0.17295354430289214,-0.1789929786010603,0.1641355697084948,-0.08741071160867987,3.0420949145640797,0.0,0.0
2.004008016032064,-0.17539470475411484,-0.1220580225611348,0.16166350495405477,-0.12360323772200213,2.9397607099941236,0.0,0.0
2.024048096192385,-0.17673626467763218,-0.06707799617586716,0.15851041799200777,-0.1576543481023504,5.091265739075827,0.0,0.0
2.0440881763527052,-0.1761392130899118,0.02985257938601983,0.15341522581700803,-0.2547596087499863,4.209625572532998,0.0,0.0
2.064128256513026,-0.17394527684045114,0.10969681247303315,0.14685230431113985,-0.3281460752934096,3.8965615811620324,0.0,0.0
2.0841683366733466,-0.17027429646888384,0.18354901857836503,0.1389588865612462,-0.39467088749468276,3.39585580307312,0.0,0.0
2.1042084168336674,-0.16531886560495415,0.24777154319648484,0.12997249912643305,-0.4493193717406566,2.881304853336358,0.0,0.0
2.124248496993988,-0.1592767355124816,0.30210650462362854,0.12013243353010848,-0.49200327981622816,2.318036626141589,0.0,0.0
2.1442885771543083,-0.15236449892653642,0.34561182929725864,0.10970166484707297,-0.5215384341517757,1.7542663854984504,0.0,0.0
2.164328657314629,-0.14479888637407928,0.3782806276228562,0.09894068272552377,-0.53804910607746,1.1596029205752307,0.0,0.0
2.1843687374749496,-0.1368086868553759,0.3995099759351702,0.08812679046909729,-0.5406946128213242,0.6459323834933686,0.0,0.0
2.2044088176352705,-0.12859118420970347,0.41087513228362144,0.07749067059631122,-0.5318059936393031,0.38237230255784666,0.0,0.0
2.224448897795591,-0.12024622148385446,0.4172481362924511,0.06711895836093609,-0.5185856117687566,0.04994964584593625,0.0,0.0
2.244488977955912,-0.11190059644987753,0.41728125169884617,0.05714037241774709,-0.4989292971594501,-0.2154480353919983,0.0,0.0
2.2645290581162323,-0.10365508652035355,0.41227549647619904,0.047647213234054846,-0.474657959184612,-0.43698826892812026,0.0,0.0
2.284569138276553,-0.09559349771642682,0.40307944019633607,0.03870933520398322,-0.44689390150358144,-0.6245218794650439,0.0,0.0
2.3046092184368736,-0.08778651939433335,0.39034891610467376,0.030380260349484385,-0.4164537427249415,-0.8098671617895933,0.0,0.0
2.3246492985971945,-0.08030415041104298,0.3741184491645187,0.022716067721097806,-0.383209631419329,-0.9222470102591108,0.0,0.0
2.344689378757515,-0.07318809637761321,0.3558027016714885,0.015734338205841778,-0.34908647576280133,-1.0009122722304855,0.0,0.0
2.3647294589178354,-0.06646708914342098,0.3360503617096115,0.00943719176667262,-0.3148573219584579,-1.0731047672664085,0.0,0.0
2.3847695390781563,-0.06016751925272635,0.3149784945347315,0.0038272335641370238,-0.2804979101267798,-1.1301209561530918,0.0,0.0
2.4048096192384767,-0.05431004268626053,0.29287382832329106,-0.0010975136872191258,-0.24623736256780748,-1.1285221427126153,0.0,0.0
2.4248496993987976,-0.048892631549898084,0.2708705568181222,-0.005369024842721458,-0.2135755577751166,-1.179411004704158,0.0,0.0
2.444889779559118,-0.04393392221219821,0.24793546688499357,-0.0089844729710498,-0.18077240641641706,-1.1501076962196282,0.0,0.0
2.464929859719439,-0.03942144282921203,0.225623969149309,-0.011983816238022093,-0.14996716334861465,-1.0529773285190027,0.0,0.0
2.4849699398797593,-0.0353164289521586,0.2052506938526717,-0.014442806007057087,-0.12294948845174963,-0.9986617636002284,0.0,0.0
2.50501002004008,-0.03159697804034793,0.1859725455905335,-0.01640874055338523,-0.09829672731640719,-0.8966445680970933,0.0,0.0
2.5250501002004007,-0.028222715002384467,0.1687131518981733,-0.01795370516399943,-0.07724823053070995,-1.7222554599195428,0.0,0.0
2.5450901803607215,-0.025515362222863557,0.1353676389760455,-0.018604586526383506,-0.032544068119203885,-0.8424330854013806,0.0,0.0
2.565130260521042,-0.023131409461332773,0.11919763807653927,-0.018880075091909494,-0.013774428276299443,-1.1981855864635838,0.0,0.0
2.5851703406813624,-0.021209597533168343,0.09609059640822151,-0.01857384777254431,0.015311365968259199,-1.1429121347985334,0.0,0.0
2.6052104208416833,-0.01972844595555446,0.0740575788806942,-0.017716296463824086,0.0428775654360113,-0.9949801296681808,0.0,0.0
2.6252505010020037,-0.018630476319968843,0.05489848177928078,-0.01638852270384571,0.0663886879989188,-0.770365057962479,0.0,0.0
2.6452905811623246,-0.01782842209391298,0.040102711302793054,-0.014713512659353485,0.08375050222461129,-0.4608472462424878,0.0,0.0
2.665330661322645,-0.017201984881749406,0.03132186060817881,-0.012861728424423409,0.09258921174650375,-0.37957852728410146,0.0,0.0
2.685370741482966,-0.016719983269156812,0.024100080629629723,-0.01086902166437662,0.0996353380023395,-0.242089106252801,0.0,0.0
2.7054108216432864,-0.016329337234126756,0.0195323017515028,-0.008803243890607177,0.10328888868847208,-0.12484764827409445,0.0,0.0
2.7254509018036073,-0.01598488837147374,0.01722244313265086,-0.00671994639868693,0.10416487459601233,-0.020740428304627592,0.0,0.0
2.7454909819639277,-0.01564660823949614,0.016914006598879934,-0.0046668901063641015,0.10265281461614142,0.07444861859159176,0.0,0.0
2.7655310621242486,-0.015277939639730958,0.018433429988259108,-0.002686811622414996,0.09900392419745527,0.15398406884505042,0.0,0.0
2.785571142284569,-0.014848412852280326,0.021476339372531635,-0.0008137516372647992,0.09365299925750985,0.24905644857334303,0.0,0.0
2.8056112224448895,-0.014321464638963416,0.026347410665845478,0.000908485662549027,0.08611186499069132,0.24821893748667634,0.0,0.0
2.8256513026052104,-0.013697915205558785,0.031177471670231563,0.002491250257429907,0.07913822974404398,0.28162477618505277,0.0,0.0
2.845691382765531,-0.01296518226982766,0.03663664678655618,0.003924981789068176,0.07168657658191349,0.31735603849389216,0.0,0.0
2.8657314629258517,-0.012109733513260236,0.04277243782837128,0.005197820399061337,0.06364193049965802,0.3333808093893744,0.0,0.0
2.885771543086172,-0.011125680578507708,0.04920264673762642,0.006308419793511524,0.05552996972250936,0.36759789668720577,0.0,0.0
2.905811623246493,-0.009999989573209613,0.05628455026490472,0.007243769103277259,0.04676746548828675,0.34605575042738207,0.0,0.0
2.9258517034068134,-0.00874133505387917,0.06293272596652214,0.00802236933264574,0.0389300114684241,0.38387092323575367,0.0,0.0
2.9458917835671343,-0.0073351839597949175,0.07030755470421261,0.008627011568771634,0.03023211180629471,0.3471114652310503,0.0,0.0
2.9659318637274548,-0.00579605419146454,0.07695648841651889,0.009083012315948954,0.022800037358866005,0.37745054072651096,0.0,0.0
2.9859719438877756,-0.004112237547812427,0.08419083218260563,0.00937550127561983,0.01462444798354385,0.32769794553602616,0.0,0.0
3.006012024048096,-0.002303232597101898,0.09045024753552643,0.009535426020198016,0.007996237228909292,0.32376230559491687,0.0,0.0
3.0260521042084165,-0.00037062100518081456,0.09663057959605417,0.009566097470685651,0.0015335725243817268,1.1045261732616034,0.0,0.0
3.0460921843687374,0.0019902607966953206,0.11804409009380674,0.009011006895852276,-0.027754528741668717,0.7272656190633747,0.0,0.0
3.066132264529058,0.004632356318941495,0.13210477611230872,0.00808732723757673,-0.046183982913777386,0.8353166233442313,0.0,0.0
3.0861723446893787,0.007598094925086728,0.14828693030726164,0.006726025308945565,-0.0680650964315582,0.7167990816976659,0.0,0.0
3.106212424849699,0.01084161903777909,0.16217620563461804,0.004987838829064815,-0.08690932399403754,0.5663202956964515,0.0,0.0
3.12625250501002,0.014304706752771238,0.17315438574960745,0.002949826804213989,-0.10190060124254129,0.41894528663136943,0.0,0.0
