time,x,x_dot,theta,theta_dot,u,x_ref,theta_ref
0.0,0.2925226277900226,0.005698229034040561,0.10546009592077044,0.062338553401921404,9.186740639992475,0.0,0.0
0.02004008016032064,0.2961886229115359,0.1832997560756668,0.102030301946866,-0.17148969869522146,6.349484869137725,0.0,0.0
0.04008016032064128,0.30230151172989395,0.30564444091790277,0.09555005965385431,-0.324012114650585,4.354537482588122,0.0,0.0
0.06012024048096192,0.3100855159989234,0.38920021345147277,0.08713676620218772,-0.4206646725833295,3.0759570590864262,0.0,0.0
0.08016032064128256,0.3190446382114258,0.44795611062512086,0.07747997667824262,-0.4828394761972548,2.66210218458004,0.0,0.0
0.1002004008016032,0.32902036896306,0.49878653758170716,0.06675864111374465,-0.5360667782248988,2.544089969627969,0.0,0.0
0.12024048096192384,0.3399698484216546,0.5474739729297335,0.054972850656574083,-0.5892895228585282,0.2682936804058764,0.0,0.0
0.1402805611222445,0.3510086501060592,0.5519400842202298,0.043376238603283435,-0.5798306026645326,0.1622122751290327,0.0,0.0
0.16032064128256512,0.3620986110177748,0.5544980455857795,0.031957820828722325,-0.5709208887280556,1.0542646596066443,0.0,0.0
0.18036072144288576,0.3735909925895169,0.5746190785871056,0.020124219774582522,-0.5916800527069901,-1.5467546698314165,0.0,0.0
0.2004008016032064,0.3844741788688881,0.5441593139685583,0.00932190450121448,-0.5401157636684021,1.4700151964790478,0.0,0.0
0.22044088176352705,0.39592838098076255,0.5727101055937234,-0.0022815845678789207,-0.58017445345467,-0.9368669921052084,0.0,0.0
0.24048096192384769,0.4070176323089981,0.5544625664117787,-0.013351398139167636,-0.5534906785644358,-0.5285357255134533,0.0,0.0
0.2605210420841683,0.41790438460548046,0.5443376148241182,-0.024196134797239168,-0.5422368329035766,-0.5088376620262982,0.0,0.0
0.280561122244489,0.4285993773974418,0.534749639598066,-0.034895666537748796,-0.5349765870254812,-0.7511589366296729,0.0,0.0
0.3006012024048096,0.43901107305501585,0.5205847828787018,-0.04537579328725158,-0.5240063374751391,-1.1383441751813264,0.0,0.0
0.32064128256513025,0.44899136756639146,0.49901472556878046,-0.05547643967294685,-0.5050323192847636,-1.637632016770814,0.0,0.0
0.3406813627254509,0.4583483485604783,0.46784904970434127,-0.06496996778096083,-0.47467640540069844,-1.8842822247309232,0.0,0.0
0.3607214428857715,0.46698853945313856,0.4320095446330135,-0.0737727655830667,-0.44013989010529364,-2.1701418454659054,0.0,0.0
0.3807615230460922,0.47480300320869934,0.3907231877780382,-0.08177423294498973,-0.40007336809615174,-2.751823824452842,0.0,0.0
0.4008016032064128,0.481567226037804,0.33821114145523384,-0.08868658070212646,-0.34561738785683643,-3.2538160209470335,0.0,0.0
0.42084168336673344,0.48708751992004173,0.27601469411188684,-0.09426199749405544,-0.2787708395964493,-3.799322400878791,0.0,0.0
0.4408817635270541,0.49115287814752856,0.2032679113743413,-0.09821915083514461,-0.19785766705445856,-3.639311718583791,0.0,0.0
0.4609218436873747,0.49382695796484194,0.13370399086566997,-0.10067698228091593,-0.12289157228856591,-3.4311638757097804,0.0,0.0
0.48096192384769537,0.4951917088602415,0.06823754476997905,-0.10177259782444827,-0.05478077717661674,-2.9268497058980403,0.0,0.0
0.501002004008016,0.495444131070181,0.012621110496975535,-0.10180640772224912,-0.001690494890043144,-2.6085232617220626,0.0,0.0
0.5210420841683366,0.4947083661024368,-0.036788248387209954,-0.10096374773705627,0.04213299925964294,-2.6829789958854056,0.0,0.0
0.5410821643286573,0.4929551288066836,-0.08766186478766191,-0.09919588848546727,0.08839296257944974,-2.290453707494956,0.0,0.0
0.561122244488978,0.4903369490223164,-0.1309089892183593,-0.09671975184961011,0.12380683179285837,-1.96672761376729,0.0,0.0
0.5811623246492986,0.48697932708776764,-0.16788109672743834,-0.09370779664836519,0.150597760062246,-1.9290239405567249,0.0,0.0
0.6012024048096192,0.4828960760358117,-0.2041625525977963,-0.09016270217447947,0.17725472369428572,-1.9251665126101674,0.0,0.0
0.6212424849699398,0.4780876536567195,-0.24042111895460938,-0.08606405372426337,0.2049324225108051,-1.919214879171849,0.0,0.0
0.6412825651302605,0.47255517186643375,-0.276624089514287,-0.0813891283293063,0.23374626974785387,-1.798143137851227,0.0,0.0
0.6613226452905812,0.46634447511333604,-0.3105348376548851,-0.07617862273207497,0.26052527986156593,-1.3502096526240606,0.0,0.0
0.6813627254509018,0.4596287556907053,-0.3357859711315371,-0.07066046959201888,0.27590765700280434,-0.5503031439589767,0.0,0.0
0.7014028056112224,0.4527184462520404,-0.3455154719332479,-0.06526622026427266,0.2697124663873109,-0.6255612747699476,0.0,0.0
0.721442885771543,0.4455826586920954,-0.3567893779972483,-0.05991793809812053,0.2674141083076064,-0.49614209642261875,0.0,0.0
0.7414829659318637,0.43827035990537627,-0.3656149393359565,-0.05465741607831881,0.26302610099008605,-0.33052202351597115,0.0,0.0
0.7615230460921844,0.4308446694666943,-0.3712845219340981,-0.049548191629604166,0.2554612224357321,-0.20353255239417994,0.0,0.0
0.781563126252505,0.423353683080017,-0.3745493193338665,-0.044632246834112425,0.245797239774587,-0.050773521650321535,0.0,0.0
0.8016032064128256,0.41585560824928086,-0.3749037415368066,-0.03996787321825908,0.23321868079266753,0.11702251950299614,0.0,0.0
0.8216432865731462,0.40841459366579674,-0.37205072917420656,-0.03562376998156916,0.21720516183449606,0.08755186005811949,0.0,0.0
0.8416833667334669,0.40101790965773937,-0.36983420040286846,-0.031555371569599054,0.20341992059850508,0.1314181534488461,0.0,0.0
0.8617234468937875,0.3936815175121971,-0.3668196072771131,-0.02776270838807749,0.18963315907607817,0.1397192014790408,0.0,0.0
0.8817635270541082,0.3864075781766941,-0.3636969667751505,-0.02422675163544164,0.17679783763179238,0.15981141008443864,0.0,0.0
0.9018036072144289,0.3792029252392775,-0.36023264687082956,-0.020936979480944286,0.1644886077248678,0.18669484044260026,0.0,0.0
0.9218436873747494,0.372077111476237,-0.356290688152024,-0.017888389875309173,0.15242948028175562,0.19289763318768258,0.0,0.0
0.9418837675350701,0.36503168778904255,-0.3522711843597231,-0.015065403211686732,0.14114933318112208,0.18475738012577,0.0,0.0
0.9619238476953907,0.3580626717725121,-0.3484508008265223,-0.01244546935978963,0.13099669259485516,0.20182150237304913,0.0,0.0
0.9819639278557114,0.351175973631954,-0.34433490702790354,-0.01002205740387431,0.12117059779576592,0.1953726946000429,0.0,0.0
1.002004008016032,0.3443683840580404,-0.3403794786956833,-0.007776120127995691,0.11229686379393095,0.19045743395698975,0.0,0.0
1.0220440881763526,0.33763734252192446,-0.33655207680579596,-0.005690624286953178,0.10427479205212568,1.750502794637147,0.0,0.0
1.0420841683366733,0.3315910210878955,-0.30231607170144587,-0.004664990245600319,0.05128170206764299,1.3323389550557714,0.0,0.0
1.062124248496994,0.32606594911603276,-0.2762535985931383,-0.004448146439144323,0.010842190322799775,1.2486394818450177,0.0,0.0
1.0821643286573146,0.3210294030889666,-0.25182730135330805,-0.004989765276071265,-0.027080941846347066,0.7650702959615046,0.0,0.0
1.1022044088176353,0.31629283704528666,-0.23682830218399759,-0.006010388806608137,-0.05103117652684361,0.36110264446081325,0.0,0.0
1.122244488977956,0.3116989047428981,-0.2296966151194281,-0.0072801442505908975,-0.06348777219913804,0.5529376135432917,0.0,0.0
1.1422845691382766,0.30732282837946884,-0.2188038181714622,-0.008919250968709443,-0.08195533590592728,0.26061514124780394,0.0,0.0
1.1623246492985972,0.30305100551440217,-0.21359114325333442,-0.010767045784426521,-0.09238974078585394,0.13106136004031846,0.0,0.0
1.1823647294589177,0.2988334099509906,-0.2108797781705793,-0.012759395496930514,-0.09961748562519962,0.049021575996286856,0.0,0.0
1.2024048096192383,0.2946385980608268,-0.20974059450818963,-0.014860872942413533,-0.10507387227415096,-0.13531996024930998,0.0,0.0
1.222444889779559,0.2903952374265562,-0.2121680317135315,-0.016976904932946506,-0.1058015995266486,-0.3035942139358996,0.0,0.0
1.2424849699398797,0.28603827037656065,-0.2178483524997774,-0.01902241533855449,-0.10227552028039917,-0.4424550547454984,0.0,0.0
1.2625250501002003,0.2815140975848651,-0.22620863958477705,-0.02092909433438446,-0.09533394979149844,-0.5369297292301463,0.0,0.0
1.282565130260521,0.2767864009242752,-0.23638483302949506,-0.022653722258787593,-0.08623139622015671,-0.652995925999492,0.0,0.0
1.3026052104208417,0.27181038543532937,-0.2488007744472928,-0.024139309407318302,-0.07427935742653545,-0.7221620568418953,0.0,0.0
1.3226452905811623,0.26655948913006117,-0.2625448152634099,-0.025354789628353424,-0.060774011051756074,-0.7319909410034653,0.0,0.0
1.342685370741483,0.26103022664043835,-0.2764631244811408,-0.026302092580248827,-0.04736514759477019,-0.7184187929918344,0.0,0.0
1.3627254509018036,0.25522816673203097,-0.29010299542036977,-0.026995138320635655,-0.03465228701934145,-0.7107101247690581,0.0,0.0
1.3827655310621243,0.24915651698296704,-0.3035824874531972,-0.027442812128821718,-0.022383690409303155,-0.7207295482177757,0.0,0.0
1.4028056112224447,0.24281149673528343,-0.31725101238418063,-0.027642083321170702,-0.009963559617449281,-0.6823957175388418,0.0,0.0
1.4228456913827654,0.23620812147615006,-0.33016876295666847,-0.027616625248798047,0.0012729036186328296,-0.5967789507746567,0.0,0.0
1.442885771543086,0.22937979197758646,-0.34141647492818056,-0.027416338868439607,0.010014319017922033,-0.6401697739280685,0.0,0.0
1.4629258517034067,0.22230951938624713,-0.3535136295669658,-0.02701458802689246,0.02008754207735732,-0.7305787251812408,0.0,0.0
1.4829659318637274,0.2149619101290352,-0.36738046286059584,-0.026355970974088292,0.03293085264020829,-0.901336569432795,0.0,0.0
1.503006012024048,0.20727014386441178,-0.38458831323117115,-0.02533647841344661,0.050974628032084204,-0.6618073540171288,0.0,0.0
1.5230460921843687,0.19932739287740556,-0.39713754935031165,-0.024089734186813514,0.0623372113316547,-1.7612219571125296,0.0,0.0
1.5430861723446894,0.19070429654739735,-0.4311548165004106,-0.021964950754334602,0.10623917162394556,-1.773879005045426,0.0,0.0
1.56312625250501,0.18139529968810383,-0.46544984296467534,-0.0189412700433831,0.15118403554757515,-1.5428876283393387,0.0,0.0
1.5831663326653307,0.17148966303076432,-0.49528183286697536,-0.015134647520600553,0.19033112613912723,-1.3708612014524724,0.0,0.0
1.6032064128256511,0.16105341627444159,-0.5218123378161369,-0.010621630829236516,0.2256508345682019,-1.0426398372634704,0.0,0.0
1.6232464929859718,0.150213341376802,-0.542003744881979,-0.005565699431821886,0.2527965698707315,-0.4791931372792516,0.0,0.0
1.6432865731462925,0.13918786160812172,-0.5512739884340149,-0.00026454444374447543,0.2650577494038705,-0.1543219120997139,0.0,0.0
1.6633266533066131,0.12810223687239605,-0.5542812367862828,0.00512521709134114,0.26948807675428077,0.0561974627338325,0.0,0.0
1.6833667334669338,0.11703708002340536,-0.5532578424495342,0.010514413697201113,0.26945983029299864,0.23064457133823568,0.0,0.0
1.7034068136272544,0.10605892729263756,-0.5489076365383898,0.01583497784825737,0.26602820755281287,0.36011589104473474,0.0,0.0
1.723446893787575,0.09521678240905945,-0.5421072441789054,0.021044730841231783,0.2604876496487206,0.5709577904991014,0.0,0.0
1.7434869739478958,0.08459143056088259,-0.5312675924088436,0.02605322595835672,0.25042475585624685,0.5861170910331147,0.0,0.0
1.7635270541082164,0.0741873533356672,-0.520203861260769,0.030883208989493365,0.2414991515568323,0.8122236970981406,0.0,0.0
1.783567134268537,0.06409139398264292,-0.5047979676512141,0.03543297513995124,0.22748830752289348,0.7676931554432911,0.0,0.0
1.8036072144288577,0.054284869817644944,-0.4903262082498988,0.03975730421683866,0.21621645384437102,0.9689215915421518,0.0,0.0
1.8236472945891782,0.044845054098596314,-0.4719907859524314,0.043765913986918994,0.20043048850401687,0.9501797833931784,0.0,0.0
1.8436873747494988,0.03576347853265801,-0.4540787782969151,0.04749511414802203,0.18646000805515173,1.031094119831325,0.0,0.0
1.8637274549098195,0.027070637511326892,-0.4346420510665558,0.05092122576235397,0.17130558071659727,1.1322671686069596,0.0,0.0
1.8837675350701402,0.018805014176994348,-0.41328116671662724,0.054006841726569124,0.1542807982107575,1.1810750944912924,0.0,0.0
1.9038076152304608,0.010984757032443372,-0.3910128572275488,0.05674300671735535,0.13680824953931106,1.2426944691620478,0.0,0.0
1.9238476953907815,0.003633112409161571,-0.36758223116409006,0.05911108415828951,0.11840387204670816,1.2698927676724376,0.0,0.0
1.9438877755511021,-0.003239996898394976,-0.3436554653778273,0.061110213697725665,0.09995647697180801,1.2636266832275629,0.0,0.0
1.9639278557114228,-0.00963759678619357,-0.31987999438992976,0.06275673534961074,0.08232608259425356,1.3327147629255225,0.0,0.0
1.9839679358717435,-0.015533213921636044,-0.2947808567721237,0.06402077163250426,0.06320181414467611,1.2628127153405162,0.0,0.0
2.004008016032064,-0.0209544862194663,-0.27106361489151276,0.06495114187421981,0.04651851208577758,1.2893329073327253,0.0,0.0
2.024048096192385,-0.02589133877271199,-0.2468426276622846,0.0655382734275971,0.029356577668864983,1.5514092192475777,0.0,0.0
2.0440881763527052,-0.030241705791494045,-0.21751835093910266,0.06563296234578454,0.004734445909371974,1.3674929108534613,0.0,0.0
2.064128256513026,-0.034077362149938874,-0.19178281792224158,0.06534313271614589,-0.014491481481932605,1.3087439024004857,0.0,0.0
2.0841683366733466,-0.037421142095841534,-0.1671889972951329,0.06470122734889332,-0.03209526836262877,1.2017507722892082,0.0,0.0
2.1042084168336674,-0.04031459796991163,-0.14467279370350475,0.06376561066079815,-0.046780834404758345,1.0991215700441126,0.0,0.0
2.124248496993988,-0.04279749521451982,-0.12414486223040952,0.06259024521566833,-0.058768272256491325,1.01959644652322,0.0,0.0
2.1442885771543083,-0.0449005176697928,-0.10515112276364887,0.061214099233926074,-0.06880729908711299,0.9030312676952298,0.0,0.0
2.164328657314629,-0.046668742179881074,-0.08841122550441366,0.05969649951062261,-0.07587998616517325,0.7808367990589326,0.0,0.0
2.1843687374749496,-0.04814940256144139,-0.0740330190780156,0.05809917875043472,-0.0798660380093942,0.7680633312560602,0.0,0.0
2.2044088176352705,-0.04934702308945949,-0.059881026400905174,0.056419497049000816,-0.08398408507169543,0.7019649995650195,0.0,0.0
2.224448897795591,-0.05028690836126896,-0.04699426359047315,0.054685432269063645,-0.08670323899685867,0.6512762658815618,0.0,0.0
2.244488977955912,-0.050988336368413885,-0.03507140035724653,0.05291562872464105,-0.08849017722112976,0.597780762070028,0.0,0.0
2.2645290581162323,-0.051471670550589654,-0.024166709108788348,0.05113015085325713,-0.08927389356919592,0.5940466041533903,0.0,0.0
2.284569138276553,-0.05173785605320808,-0.013309275130921361,0.04931990542546762,-0.09051227138947575,0.5428996192560905,0.0,0.0
2.3046092184368736,-0.05180632922592756,-0.0034236586359736917,0.0475033395636772,-0.09082829308952085,0.47452973468296844,0.0,0.0
2.3246492985971945,-0.05170324490973286,0.005154215809734903,0.04570892851331889,-0.08972055251791546,0.4249058964159298,0.0,0.0
2.344689378757515,-0.05144745100258037,0.012789695357624434,0.04395434235660883,-0.08772930783550292,0.38633648196338677,0.0,0.0
2.3647294589178354,-0.05105349415682402,0.019697842287817666,0.04225104821909571,-0.0851647068756561,0.4080898232212299,0.0,0.0
2.3847695390781563,-0.050512399547914553,0.027054730445473192,0.04057558926202465,-0.08377294785355326,0.37094367282486096,0.0,0.0
2.4048096192384767,-0.04983818121558514,0.03371091661647054,0.0389391037214382,-0.08182427702932259,0.36267722571652095,0.0,0.0
2.4248496993987976,-0.04903359624613505,0.04022924847250471,0.03733609960576621,-0.08015020578359915,0.33872141223532903,0.0,0.0
2.444889779559118,-0.04810753301505011,0.0463031615542471,0.03577046699401205,-0.07828163058770816,0.3197488959945797,0.0,0.0
2.464929859719439,-0.04706694625984727,0.0520293377601419,0.03424342036494617,-0.0763523314532941,0.30190124684736547,0.0,0.0
2.4849699398797593,-0.0459183628906856,0.05742916845808355,0.03275576113001869,-0.07438296174637363,0.28671468806343625,0.0,0.0
2.50501002004008,-0.04466728277831443,0.06255400561855841,0.0313069843862075,-0.07243883719055962,0.2716869643457976,0.0,0.0
2.5250501002004007,-0.04331915495635577,0.06740639109793277,0.029896738328371766,-0.07051230289178659,0.44610470871549623,0.0,0.0
2.5450901803607215,-0.04180551776849651,0.07568185939296303,0.028414151012600357,-0.07412936578857053,0.39986540967259193,0.0,0.0
2.565130260521042,-0.04014398852092839,0.08307646237840595,0.026876902043925874,-0.0768624484337242,0.3450687039420759,0.0,0.0
2.5851703406813624,-0.03835550828157162,0.08942401196783847,0.025307332720632757,-0.07847846616465597,0.28802213774798324,0.0,0.0
2.6052104208416833,-0.036461887099355245,0.09468105911081871,0.023728899257165842,-0.07892167317334581,0.22449774231923036,0.0,0.0
2.6252505010020037,-0.0344874605166528,0.0987213291351223,0.022168793194906816,-0.07800530311295137,0.1903309600614895,0.0,0.0
2.6452905811623246,-0.032445113955362474,0.10211732806451626,0.020637156232458008,-0.07658184812244034,0.1620012960574827,0.0,0.0
2.665330661322645,-0.030345463381690002,0.10498252868362352,0.019140897308921843,-0.07481294617680817,0.13547521307120838,0.0,0.0
2.685370741482966,-0.028198431177011672,0.10735161023391643,0.017686094651690156,-0.0727401328615843,0.11144958507826361,0.0,0.0
2.7054108216432864,-0.026012975924189538,0.10927276264110676,0.016277626292165746,-0.07042341797622054,0.10623425959879595,0.0,0.0
2.7254509018036073,-0.023790729377710946,0.11111232732392959,0.014909661204621585,-0.06839825437720812,0.08448694567510664,0.0,0.0
2.7454909819639277,-0.02153978595556759,0.11254717110716789,0.013586293274530934,-0.06616839650453257,0.07199970470822095,0.0,0.0
2.7655310621242486,-0.01926463939313795,0.11375732812148195,0.012306481708703083,-0.06399057829139253,0.053355934523775135,0.0,0.0
2.785571142284569,-0.01697219829949144,0.11462205468232543,0.01107306160172614,-0.06167100534884718,0.03615219278486002,0.0,0.0
2.8056112224448895,-0.014668822644002783,0.11516878277443278,0.009888318506063047,-0.05923715478315462,0.02130805809758328,0.0,0.0
2.8256513026052104,-0.01235996556428731,0.11544285398577367,0.00875346486041499,-0.05674268228240284,0.008565925818589122,0.0,0.0
2.845691382765531,-0.01005027423064377,0.115484566682177,0.00766879823100984,-0.0542333314702575,0.00028938610061688373,0.0,0.0
2.8657314629258517,-0.007742667597171453,0.11538033167361579,0.006632320533442086,-0.051823884878387697,-0.010373488992205986,0.0,0.0
2.885771543086172,-0.005441009615632679,0.11508289907693868,0.005643733444726014,-0.04942935443580357,-0.01913949945231183,0.0,0.0
2.905811623246493,-0.003148437744041335,0.11462859357956717,0.004701931039935854,-0.04709012023950804,-0.027891482830256973,0.0,0.0
2.9258517034068134,-0.0008680973605152643,0.11401701917630354,0.003806094188604267,-0.04479184256657933,-0.04151326628957151,0.0,0.0
2.9458917835671343,0.0013949526747199666,0.11315250176176155,0.0029585422735637556,-0.04237759575202558,-0.045168788523525516,0.0,0.0
2.9659318637274548,0.003639528763940555,0.11222880446102941,0.0021560691851926217,-0.040123654418556705,-0.05037462720483109,0.0,0.0
2.9859719438877756,0.005863829427769909,0.11121503319146772,0.0013966599263117684,-0.03797046294404267,-0.04130400370099204,0.0,0.0
3.006012024048096,0.008071611900385021,0.11038912363075559,0.0006702196821488601,-0.03632201220814541,-0.04826615785430552,0.0,0.0
3.0260521042084165,0.010260367568176627,0.10943778338958027,-2.3759757755503134e-05,-0.03469897199521816,0.3256798679337023,0.0,0.0
3.0460921843687374,0.012576218820082651,0.11579256259530127,-0.0009084031162041839,-0.044232167922434035,0.1575124285041292,0.0,0.0
3.066132264529058,0.014953795871016237,0.11887885254667926,-0.0018909153765172817,-0.049125613015654886,0.0996789505268248,0.0,0.0
3.0861723446893787,0.017370812152556328,0.12085081407700447,-0.0029436610568776686,-0.05263728401801935,0.038089290730383814,0.0,0.0
