time,x,x_dot,theta,theta_dot,u,x_ref,theta_ref
0.0,0.8166121264542783,0.03233374416049481,-0.17240270550719103,0.040560329421943764,-1.5091475967322086,0.0,0.0
0.02004008016032064,0.8167194912503318,0.005368239802675784,-0.1718031076740809,0.029979891655506213,-4.776835924732557,0.0,0.0
0.04008016032064128,0.815014961215503,-0.08522650174143988,-0.16953196411142527,0.1135571781327824,-2.573580829798172,0.0,0.0
0.06012024048096192,0.8123557659502418,-0.13295976326305656,-0.16684169372831478,0.13451351915552368,-2.4356599508753973,0.0,0.0
0.08016032064128256,0.8087948130051471,-0.17804764725473715,-0.16379427665277208,0.15237085377713583,-2.3626295280594434,0.0,0.0
0.1002004008016032,0.804359640552231,-0.22175862264580423,-0.1604121004306724,0.1691088111049841,-2.420712935610362,0.0,0.0
0.12024048096192384,0.7990266239228543,-0.266650831468837,-0.15663987529887485,0.18861125658987613,-2.1881773155188187,0.0,0.0
0.1402805611222445,0.792885221655325,-0.3070701133764638,-0.15258737306198888,0.20262511184429852,-2.418142233168316,0.0,0.0
0.16032064128256512,0.7858446559184344,-0.35202828684453236,-0.14809580712975526,0.22457829661168133,-2.194713184438607,0.0,0.0
0.18036072144288576,0.7779906375070281,-0.3927009205703148,-0.14326525402718884,0.24152765512832106,-1.9640914837343741,0.0,0.0
0.2004008016032064,0.7694116031043081,-0.42895172013600164,-0.1381979874358027,0.2533633295693071,-1.9955507705422355,0.0,0.0
0.22044088176352705,0.760093815583076,-0.46588937606160824,-0.13284335587127016,0.2677315782266259,-1.8300612545592427,0.0,0.0
0.24048096192384769,0.7501002035972704,-0.49968059929028086,-0.12726288401152333,0.2790235929873412,-1.741397365620935,0.0,0.0
0.2605210420841683,0.7394637030823856,-0.5318250257442365,-0.12147229672316807,0.28952936441776306,-1.498626098207598,0.0,0.0
0.280561122244489,0.7282772688021037,-0.5593217140140925,-0.11557545549541975,0.29484206138741637,-1.4351120146279757,0.0,0.0
0.3006012024048096,0.7165639671087605,-0.5856650846671648,-0.1095717241228575,0.300186568628113,-1.224266592241725,0.0,0.0
0.32064128256513025,0.7044042792592126,-0.6079843924773974,-0.10354543637330178,0.3013143874777858,-1.0421103969831973,0.0,0.0
0.3406813627254509,0.6918675125032124,-0.6268383378000089,-0.09756429129868027,0.2990572537310755,-0.9963760764021277,0.0,0.0
0.3607214428857715,0.6789698026894047,-0.6448854906903873,-0.09161705355372907,0.2973618872475601,-0.8886373455292078,0.0,0.0
0.3807615230460922,0.66575147594225,-0.6609163373577281,-0.0857288254509366,0.2944114051396233,-0.8023879900414852,0.0,0.0
0.4008016032064128,0.6522444992517676,-0.6753488345241185,-0.07991263575821939,0.2908094846358605,-0.7075828527099732,0.0,0.0
0.42084168336673344,0.6384842001296763,-0.6880149561045658,-0.07418700480667238,0.2862815475773499,-0.6116445940167754,0.0,0.0
0.4408817635270541,0.6245063770036865,-0.6988911562994893,-0.06857173591385964,0.28076344464063757,-0.5641277346939396,0.0,0.0
0.4609218436873747,0.6103279736447502,-0.7089201679468157,-0.06305912549168945,0.2756305211085094,-0.43168166736742863,0.0,0.0
0.48096192384769537,0.5959990943306348,-0.7164439657057704,-0.05769170098742909,0.26837122521301776,-0.5429807506326769,0.0,0.0
0.501002004008016,0.5814747961614725,-0.7262149084581151,-0.05237064595487461,0.2660527516277239,-0.3508620874989982,0.0,0.0
0.5210420841683366,0.5668285185375255,-0.7323138811973485,-0.04717459312387781,0.2598026415498398,-0.3091017421485183,0.0,0.0
0.5410821643286573,0.5520750786091551,-0.7376719964185184,-0.04209518649621001,0.25397033138339015,-0.2902967990477915,0.0,0.0
0.561122244488978,0.537220369244742,-0.7427354682206521,-0.03711139712332264,0.24918946864436836,-0.26375766466599065,0.0,0.0
0.5811623246492986,0.5222733268414984,-0.747352120162184,-0.03220731866546662,0.24520392289280113,-0.2341553072394494,0.0,0.0
0.6012024048096192,0.5072441048149301,-0.751461101328413,-0.027369339683931505,0.24189894907675571,-0.19502301259114146,0.0,0.0
0.6212424849699398,0.4921465933693331,-0.7548755722798498,-0.02258984001389121,0.23897498350201463,-0.14742592534160526,0.0,0.0
0.6412825651302605,0.47699800210281046,-0.7574295633261316,-0.017866522010154724,0.2361659001868244,-0.09907864710714942,0.0,0.0
0.6613226452905812,0.46181584922357055,-0.7591076439619949,-0.013197885006825005,0.23343185016648585,-0.04970554174860305,0.0,0.0
0.6813627254509018,0.44661806867698645,-0.759889027329204,-0.008583376024979512,0.23072544909227466,0.010136690374546446,0.0,0.0
0.7014028056112224,0.43142669497395014,-0.759568685151814,-0.004028909059484735,0.22772334827473883,0.05908191430086657,0.0,0.0
0.721442885771543,0.41625952729073823,-0.7583583841605963,0.0004655967255168831,0.22472528925008087,0.11430669267261047,0.0,0.0
0.7414829659318637,0.40113683205957607,-0.7561347615581085,0.004896171505199881,0.22152873898414988,0.17718205488780947,0.0,0.0
0.7615230460921844,0.38608187905285457,-0.7527476503360753,0.009253969025393986,0.21788987600970522,0.22472569502757686,0.0,0.0
0.781563126252505,0.3711119755313091,-0.748495176077275,0.01353865603557322,0.21423435050896164,0.28595674279735167,0.0,0.0
0.8016032064128256,0.3562497902591913,-0.7431092636058897,0.01774143653670411,0.2101390250565445,0.3508984520873676,0.0,0.0
0.8216432865731462,0.34151946267547595,-0.7365163791857682,0.0218508341705482,0.20546988169220443,0.4190278268132593,0.0,0.0
0.8416833667334669,0.32694640191652274,-0.7286530379476591,0.025852927627407176,0.2001046728429488,0.4891128274120867,0.0,0.0
0.8617234468937875,0.31255680985979545,-0.7194796028363647,0.02973198517369579,0.1939528773144307,0.5597669723664996,0.0,0.0
0.8817635270541082,0.29837714445552915,-0.7089832702133136,0.033471177643467964,0.18695962348860878,0.6230419501861901,0.0,0.0
0.9018036072144289,0.2844310230455371,-0.6973060704996041,0.03705711989600362,0.17929711262678266,0.6771284096036897,0.0,0.0
0.9218436873747494,0.2707385203551456,-0.6846251345195743,0.040480842632315155,0.17118613681557668,0.7338961658059427,0.0,0.0
0.9418837675350701,0.25732080267561913,-0.6708858839763243,0.04373079647995405,0.16249769238194472,0.7895274861267282,0.0,0.0
0.9619238476953907,0.24419864153240617,-0.656108057160648,0.04679501058950679,0.15321070547763696,0.8491687069565682,0.0,0.0
0.9819639278557114,0.23139442509743938,-0.6402108217483399,0.049658009723046376,0.14314995667697925,0.8926836377878578,0.0,0.0
1.002004008016032,0.21892430630684026,-0.623505939529956,0.05231247959533059,0.1327234936142108,0.9221934190044481,0.0,0.0
1.0220440881763526,0.20679903310591377,-0.6062636600463249,0.05475797641132506,0.12227484079972327,1.0937299433879355,0.0,0.0
1.0420841683366733,0.195084823463418,-0.585710482124789,0.05690980163518135,0.10759126119281456,1.1368554184377189,0.0,0.0
1.062124248496994,0.18379787895390665,-0.5643472254755671,0.05875640652200241,0.09233024434105318,1.1366317728876856,0.0,0.0
1.0821643286573146,0.17293757695629802,-0.5430150998804315,0.060309624284438326,0.07766088812179577,1.1427724188278103,0.0,0.0
1.1022044088176353,0.16250586270609663,-0.5215857125100704,0.0615757143429644,0.06330450292630363,1.1353486487536772,0.0,0.0
1.122244488977956,0.15249947283714615,-0.5003194934475232,0.0625670351077769,0.04956603824062534,1.0958108151385042,0.0,0.0
1.1422845691382766,0.14290269555327728,-0.47983886419344346,0.06331294678077876,0.03729558365009263,1.0930195907083409,0.0,0.0
1.1623246492985972,0.1337142258288445,-0.4594234862216383,0.0638198051085151,0.02534291638681761,1.067783953622719,0.0,0.0
1.1823647294589177,0.12492407208363748,-0.4395076872603518,0.06410554976520466,0.014287232834477996,1.049278417411899,0.0,0.0
1.2024048096192383,0.11652493232469222,-0.4199569879472637,0.06418279101614785,0.0038620625471595185,1.0253994595716542,0.0,0.0
1.222444889779559,0.10850746869179503,-0.4008731816448591,0.06406595394438304,-0.005841853588240515,1.0028223705914516,0.0,0.0
1.2424849699398797,0.10086290730174229,-0.38222806950263727,0.06376747472598358,-0.01492396091997305,0.9733760861918341,0.0,0.0
1.2625250501002003,0.09357984696108601,-0.3641530170328137,0.06330264869491029,-0.0232413015536648,0.946363517651547,0.0,0.0
1.282565130260521,0.08664788381485623,-0.3465981573114889,0.06268429869604819,-0.03091749994310465,0.909954603805507,0.0,0.0
1.3026052104208417,0.08005299251378062,-0.32974456505378064,0.06192976141210799,-0.03772686419700973,0.8872116400614196,0.0,0.0
1.3226452905811623,0.07378651804777618,-0.3133237233002218,0.0610475373327775,-0.04411120396652483,0.865165242074841,0.0,0.0
1.342685370741483,0.06784011377396612,-0.2973202136905032,0.06004491416463659,-0.05013115840704562,0.8279456762816044,0.0,0.0
1.3627254509018036,0.0621995481401412,-0.2820282816912463,0.058937277400450516,-0.05538183820930353,0.7944597101587852,0.0,0.0
1.3827655310621243,0.056852076050636725,-0.26737360447522346,0.05773717205529978,-0.06000526725753681,0.7602447714652835,0.0,0.0
1.4028056112224447,0.05178469428938679,-0.25336908806249664,0.056456987331730435,-0.06400923617846752,0.7258474909008538,0.0,0.0
1.4228456913827654,0.046984351182256676,-0.2400171553565059,0.055108716141123504,-0.06741355953034642,0.6946021648942575,0.0,0.0
1.442885771543086,0.042439243972851294,-0.2272553604702691,0.053702084049848,-0.07033160456377544,0.6600472798128819,0.0,0.0
1.4629258517034067,0.03813629515483219,-0.21514744090095517,0.052248383937450314,-0.07268500561988424,0.6272904069997067,0.0,0.0
1.4829659318637274,0.03406314188063134,-0.2036576637100427,0.050757564826470286,-0.07454095554900148,0.5935140645056709,0.0,0.0
1.503006012024048,0.030207033892399753,-0.19280539941157926,0.04923994018003371,-0.07588123232182863,0.5623473089664844,0.0,0.0
1.5230460921843687,0.026556246454566713,-0.18253937189165204,0.0477041332217027,-0.07679034791655066,0.533362731143282,0.0,0.0
1.5430861723446894,0.0230999111769925,-0.17281676387871062,0.04615738061197275,-0.07733763048649776,0.5111108094611164,0.0,0.0
1.56312625250501,0.019829789426570096,-0.16350608752112028,0.04460291905980845,-0.07772307760821494,0.4865200576426239,0.0,0.0
1.5831663326653307,0.01673673210224854,-0.15465286621607774,0.043045305200017314,-0.0778806929895568,0.45098501873791313,0.0,0.0
1.6032064128256511,0.013807320680701972,-0.14647057107732844,0.04149547324009093,-0.07749159799631929,0.421845753831975,0.0,0.0
1.6232464929859718,0.01103062962221283,-0.13883455292445712,0.0399606719047819,-0.07674006676545149,0.3932090933923057,0.0,0.0
1.6432865731462925,0.008395925004607448,-0.13173523088026912,0.03844795335324079,-0.0756359275770554,0.364918446463996,0.0,0.0
1.6633266533066131,0.005892601424861966,-0.1251661789872741,0.03696430898667935,-0.074182218328072,0.3395453888630769,0.0,0.0
1.6833667334669338,0.003511183410613236,-0.1190709007124365,0.03551521023561426,-0.07245493755325425,0.3159767417854257,0.0,0.0
1.7034068136272544,0.001242889550061241,-0.11341469302759974,0.03410529330777293,-0.07049584639206673,0.2939923448537368,0.0,0.0
1.723446893787575,-0.0009204547106995615,-0.10816721303804011,0.03273851681437698,-0.06833882466979747,0.27321776591721275,0.0,0.0
1.7434869739478958,-0.0029865642789203483,-0.10330547841103933,0.031418405365424784,-0.06600557244760955,0.25455021109953846,0.0,0.0
1.7635270541082164,-0.004962345319181306,-0.09878905201304787,0.03014754704109811,-0.06354291621633368,0.23716254371054488,0.0,0.0
1.783567134268537,-0.006854218720333952,-0.09459367005763226,0.0289280930477004,-0.06097269966988558,0.22376212753236407,0.0,0.0
1.8036072144288577,-0.008667064279667585,-0.09064227796668164,0.02776018813410828,-0.058395245679605925,0.20537919959575057,0.0,0.0
1.8236472945891782,-0.010407720751580059,-0.08703282359562373,0.026647215919082385,-0.05564861075129478,0.19277811106493375,0.0,0.0
1.8436873747494988,-0.012080786541073356,-0.08365328947466481,0.025589526209721533,-0.05288448546804251,0.18213185254755818,0.0,0.0
1.8637274549098195,-0.013690113092660779,-0.08046632757937112,0.02458667466457238,-0.050142577257457674,0.17273676943715122,0.0,0.0
1.8837675350701402,-0.015239079326596206,-0.07744831169677138,0.02363783133446408,-0.047442166505414926,0.16449843338190287,0.0,0.0
1.9038076152304608,-0.01673062824493934,-0.07457744591715673,0.022741830569751913,-0.044800038235608235,0.15629433673901044,0.0,0.0
1.9238476953907815,-0.01816770461100932,-0.071853818303499,0.02189782004876525,-0.04220052604933316,0.15042310965346053,0.0,0.0
1.9438877755511021,-0.01955235775484127,-0.06923265719159752,0.021103911125259237,-0.03969544617530066,0.14569001954601815,0.0,0.0
1.9639278557114228,-0.020886207226774985,-0.06669247359668581,0.02035786553515814,-0.037302279505054825,0.1417146518620403,0.0,0.0
1.9839679358717435,-0.022170590599147062,-0.06421916861860384,0.019657303724561766,-0.035028090529818624,0.13855271320793128,0.0,0.0
2.004008016032064,-0.023406541048206733,-0.061797522452983554,0.01899965724486151,-0.032882323985012805,0.13606772312487175,0.0,0.0
2.024048096192385,-0.024594839876009772,-0.05941494139015195,0.018382232358867996,-0.030871244299675717,-0.054478639327309786,0.0,0.0
2.0440881763527052,-0.02580966453316379,-0.0607412328577009,0.017912578576840626,-0.023482689101368536,-0.05612875957921226,0.0,0.0
2.064128256513026,-0.027051524578296217,-0.06209300225662125,0.0175887005907744,-0.01619389930331134,-0.021133166749202292,0.0,0.0
2.0841683366733466,-0.028306671478327952,-0.06275734500158683,0.017388088989905452,-0.010030580043447394,0.005759724772608721,0.0,0.0
2.1042084168336674,-0.02956455375433059,-0.06289411380013205,0.017293750223485126,-0.004716938321016296,0.051033472811280706,0.0,0.0
2.124248496993988,-0.03080747779908663,-0.06214620223780193,0.01727861014886466,-0.0007570037310233842,0.07741312519636578,0.0,0.0
2.1442885771543083,-0.03202514547899392,-0.06088338399536461,0.017327144557886944,0.002426720451114195,0.10633793648357576,0.0,0.0
2.164328657314629,-0.03320628373086832,-0.0590569125937202,0.017422742147579044,0.004779879484605081,0.13794580537467904,0.0,0.0
2.1843687374749496,-0.034338586001810376,-0.05661511354710281,0.01754751918760096,0.0062388520010958235,0.16741804529719184,0.0,0.0
2.2044088176352705,-0.035410587467500955,-0.05360007328452881,0.017685025107315535,0.006875295985728796,0.1886098267369432,0.0,0.0
2.224448897795591,-0.03641405813879211,-0.05017353356455765,0.01782373268641788,0.0069353789551172,0.20789916156603513,0.0,0.0
2.244488977955912,-0.0373415107462328,-0.04637263037203439,0.01795323503409971,0.0064751173840915275,0.21753289664767594,0.0,0.0
2.2645290581162323,-0.03818922316717906,-0.04238562104731298,0.018068714493301982,0.0057739729601136,0.2341907795309827,0.0,0.0
2.284569138276553,-0.038950728322260195,-0.03807525775405699,0.018161156820200575,0.004622116344929674,0.24916900971135236,0.0,0.0
2.3046092184368736,-0.03962020796120975,-0.03347398194747756,0.01822238487756161,0.003061402868051794,0.2612877853620163,0.0,0.0
2.3246492985971945,-0.040192950694077315,-0.02863713664337817,0.018245697057414658,0.0011656089926522716,0.2719931166950106,0.0,0.0
2.344689378757515,-0.040664785809577525,-0.023591755775010596,0.018224979269956303,-0.0010358893729177537,0.2793775529209314,0.0,0.0
2.3647294589178354,-0.04103282583831213,-0.01840200143673018,0.018155781953832523,-0.0034598658061890004,0.28580243199201244,0.0,0.0
2.3847695390781563,-0.041294543841537,-0.01308590016124362,0.01803391093811972,-0.006093550785640018,0.2899499021361425,0.0,0.0
2.4048096192384767,-0.04144828645462386,-0.0076871306543430384,0.017856171739761485,-0.008886959917911745,0.2905475097441704,0.0,0.0
2.4248496993987976,-0.04149376950350259,-0.0022741524439362747,0.01762109363003733,-0.0117539054862079,0.2906312727370131,0.0,0.0
2.444889779559118,-0.041430892878268386,0.003143831261709921,0.01732714470590245,-0.014697446206743868,0.2885627469311399,0.0,0.0
2.464929859719439,-0.0412603794436444,0.008525671731199173,0.016973680513826004,-0.017673209603822317,0.2844800205791792,0.0,0.0
2.4849699398797593,-0.04098372097231963,0.013832923566238619,0.016560859249149375,-0.020641063233831376,0.27840895938944105,0.0,0.0
2.50501002004008,-0.040603168100522995,0.019027643589831843,0.016089627661718384,-0.02356157937154967,0.2705666271805523,0.0,0.0
2.5250501002004007,-0.04012164590145862,0.024076109953218773,0.015561600113137014,-0.026401377429068458,0.30384491251931656,0.0,0.0
2.5450901803607215,-0.039526017116145395,0.029781439265661208,0.014953981669031854,-0.030380922205257954,0.2863496286484302,0.0,0.0
2.565130260521042,-0.038822934454452826,0.035154133084628315,0.014273172311194533,-0.03404046789186606,0.267209861385841,0.0,0.0
2.5851703406813624,-0.03801967137264158,0.040163154090562335,0.013526072464894635,-0.037354992314994874,0.24676339616198714,0.0,0.0
2.6052104208416833,-0.03712399224918538,0.044783956172809995,0.012719929020091754,-0.04030717224014406,0.22523891162171675,0.0,0.0
2.6252505010020037,-0.03614406523356259,0.04899635078113977,0.011862247337340462,-0.04288408413756458,0.20296247895121608,0.0,0.0
2.6452905811623246,-0.0350883371622855,0.05278640356385427,0.010960647897819496,-0.045079971976048336,0.1801376495556264,0.0,0.0
2.665330661322645,-0.03396545631537951,0.05614404234529948,0.01002279532280974,-0.046892628750487844,0.15672856161222634,0.0,0.0
2.685370741482966,-0.032784288607980286,0.05905838536996136,0.009056467695184481,-0.04831638138126288,0.13260020004825976,0.0,0.0
2.7054108216432864,-0.03155397250506266,0.06151580514588146,0.008069684584385914,-0.04933915553992837,0.10751525523072986,0.0,0.0
2.7254509018036073,-0.030284013922193275,0.06349792914346912,0.007070896423310154,-0.04993940805378793,0.0836221997931853,0.0,0.0
2.7454909819639277,-0.02898345025799661,0.06502818320983311,0.006067781016914735,-0.05015577031977099,0.060411319909603925,0.0,0.0
2.7655310621242486,-0.027661051490867235,0.06611993835646882,0.005067590064722154,-0.05000954760962904,0.03837851115386132,0.0,0.0
2.785571142284569,-0.02632512874035753,0.06679613752548524,0.004076904758951588,-0.04953426528852827,0.016180784700591408,0.0,0.0
2.8056112224448895,-0.024984060215785024,0.0670534262286252,0.003102462837693029,-0.048722096062927975,-0.004720886652566626,0.0,0.0
2.8256513026052104,-0.023645723033600224,0.06691685910924008,0.0021503464090865186,-0.04760582143032551,-0.022920146442167947,0.0,0.0
2.845691382765531,-0.022316946158687696,0.06643884374562639,0.0012251975806243849,-0.04625744142310668,-0.04136435300371603,0.0,0.0
2.8657314629258517,-0.021004661866258694,0.06561421462145013,0.0003319718153768573,-0.04466128826237638,-0.05935596611520933,0.0,0.0
2.885771543086172,-0.019715634961387236,0.06445134524357281,-0.0005244388856332515,-0.04282053505050544,-0.07626552627259438,0.0,0.0
2.905811623246493,-0.018456218547547334,0.06297082069199508,-0.0013395433730936323,-0.04075522437301903,-0.09193822650479962,0.0,0.0
2.9258517034068134,-0.017232294902829154,0.061196182235908995,-0.0021093136012272627,-0.03848851140668152,-0.10590031003026806,0.0,0.0
2.9458917835671343,-0.016049091761845834,0.05916015704916594,-0.002830436369079741,-0.036056138392623935,-0.11871350598599772,0.0,0.0
2.9659318637274548,-0.014911402467151528,0.05688446473471531,-0.003499963831663548,-0.033476373129190336,-0.1301878971740497,0.0,0.0
2.9859719438877756,-0.013823512704598563,0.05439448812764823,-0.004115406002180173,-0.030772108525831236,-0.1401734198078653,0.0,0.0
3.006012024048096,-0.01278914265987394,0.051718502236231145,-0.00467480282311306,-0.02796984104664433,-0.14864605917062151,0.0,0.0
3.0260521042084165,-0.0118114382111414,0.04888522243662699,-0.005176725840432689,-0.025096150865981427,-0.2162445197994731,0.0,0.0
3.0460921843687374,-0.010916634097523328,0.04474020568090359,-0.00558479769024752,-0.02040359249074155,-0.21331677430602033,0.0,0.0
3.066132264529058,-0.010103470832690519,0.040658163241640455,-0.005903304594464987,-0.01592534521087336,-0.20893894263342083,0.0,0.0
3.0861723446893787,-0.009370148749353527,0.03666610416684958,-0.006136816164711706,-0.011675578512335978,-0.20218655525330756,0.0,0.0
