time,x,x_dot,theta,theta_dot,u,x_ref,theta_ref
0.0,-0.05695582064852989,-0.05005282818698449,0.08815246656444031,0.02692280125237209,3.1258566590206223,0.0,0.0
0.02004008016032064,-0.05676289896046206,0.009646084403391222,0.08742536580006095,-0.03635503821896803,3.217311570714719,0.0,0.0
0.04008016032064128,-0.055340113629871394,0.07113926652953341,0.08537474890176965,-0.10253084491456509,2.7586485995719725,0.0,0.0
0.06012024048096192,-0.05286572615141319,0.12371937392291044,0.08225453642180598,-0.15601062399818333,2.437530275087175,0.0,0.0
0.08016032064128256,-0.04946404051893515,0.17008428162390196,0.0782317550759599,-0.2011390672923037,1.9807249888107206,0.0,0.0
0.1002004008016032,-0.045312030507449974,0.20760050057425888,0.07354687696628419,-0.23424390548378565,1.6899657956982501,0.0,0.0
0.12024048096192384,-0.04052173044456683,0.23951500314415733,0.06833954447108248,-0.2603666247600857,1.5712666971868114,0.0,0.0
0.1402805611222445,-0.03513792091333705,0.26919047656148876,0.06264585364795677,-0.28468454115628505,1.3497518109733926,0.0,0.0
0.16032064128256512,-0.029245359523590635,0.2946280694873206,0.05655889451868232,-0.3043479564637226,1.0913848591866078,0.0,0.0
0.18036072144288576,-0.02294308220347954,0.3151138660055548,0.05019090887619521,-0.3183992821243553,0.9923554399498223,0.0,0.0
0.2004008016032064,-0.016267893742072284,0.3337594230703627,0.043559424269963044,-0.33157423031160843,0.8162554770615225,0.0,0.0
0.22044088176352705,-0.009286600104036799,0.3490646819017743,0.036725392455006174,-0.34170159074784345,0.6212401346178261,0.0,0.0
0.24048096192384769,-0.0020733389852681545,0.36066305593843223,0.029759623146932375,-0.34828846540369,0.37459316339198223,0.0,0.0
0.2605210420841683,0.005277634486450068,0.36754867358591115,0.02276235721645199,-0.3498632965240193,0.22432880363818086,0.0,0.0
0.280561122244489,0.01270967591161045,0.3716020712580191,0.015777344301670555,-0.34925064573907166,0.040318758872994465,0.0,0.0
0.3006012024048096,0.020152966489512307,0.3721645288950927,0.008868179288657914,-0.345458250650632,-0.10668778389303049,0.0,0.0
0.32064128256513025,0.027552103801118274,0.3699568655802984,0.002077311845547117,-0.33954337215553987,-0.20969845281040891,0.0,0.0
0.3406813627254509,0.03486882057611359,0.3658358387497657,-0.004577795324698451,-0.3327553585122784,-0.37414460157908247,0.0,0.0
0.3607214428857715,0.04204083885349852,0.3586009138692465,-0.011042893121126936,-0.3232548898214243,-0.5760668646861852,0.0,0.0
0.3807615230460922,0.04899120533047061,0.34751832384860465,-0.01724063148031814,-0.3098869179595601,-0.7013434981763886,0.0,0.0
0.4008016032064128,0.055672803655168884,0.3340799162349137,-0.023136835875776095,-0.29481021977289784,-0.8657542814118706,0.0,0.0
0.42084168336673344,0.062023165329511964,0.31751808371715406,-0.02867257602396097,-0.2767870074092438,-1.0326342391770593,0.0,0.0
0.4408817635270541,0.06797876119425653,0.2977797932372279,-0.033785246914220815,-0.25563354451299225,-1.128653922647429,0.0,0.0
0.4609218436873747,0.07350359648169266,0.27624176437180653,-0.038451044427118455,-0.23328987564488216,-1.2473845457759998,0.0,0.0
0.48096192384769537,0.07855269102099673,0.2524547269652033,-0.042630098931223,-0.20895272520522717,-1.3714129146386878,0.0,0.0
0.501002004008016,0.08307886219834927,0.2263085588676272,-0.04627640306016695,-0.18231520644719756,-1.446890095797205,0.0,0.0
0.5210420841683366,0.08705372101118788,0.19874294064193088,-0.04936897818503975,-0.15462875624363995,-2.301746441875257,0.0,0.0
0.5410821643286573,0.0901446407398175,0.1545459864314803,-0.051428077779367844,-0.10295497971640488,-2.1731772541377974,0.0,0.0
0.561122244488978,0.09240239562300383,0.11288774415931652,-0.05254193702774112,-0.05569296241866388,-2.0567057302833334,0.0,0.0
0.5811623246492986,0.09387275869893591,0.0735181537966044,-0.05278568675677331,-0.012187486451609553,-1.6906899403989537,0.0,0.0
0.6012024048096192,0.09469860376916327,0.04129225351136781,-0.052374651006239545,0.020551787526688167,-1.4892202300431996,0.0,0.0
0.6212424849699398,0.09495841435961865,0.012990529522769183,-0.05142388728995461,0.047538185814246584,-1.4622794619588233,0.0,0.0
0.6412825651302605,0.09466242451358554,-0.01479949230165533,-0.04994309547780075,0.07403959060769283,-1.1749390967524387,0.0,0.0
0.6613226452905812,0.09392231014659906,-0.03700571834932387,-0.04809072312288261,0.09261861774590704,-1.2640557062562998,0.0,0.0
0.6813627254509018,0.09270276459764154,-0.06097727744787587,-0.045802972006900526,0.11438755579910426,-1.056266900540607,0.0,0.0
0.7014028056112224,0.0910841961213477,-0.08092842381469184,-0.04318674683923017,0.130811258383518,-0.9128177926293656,0.0,0.0
0.721442885771543,0.08912181832598211,-0.09811888976827962,-0.04030931094505411,0.1438717947088029,-0.7769981719841127,0.0,0.0
0.7414829659318637,0.08686779557468279,-0.11270113756496587,-0.037231842563866274,0.15387341905939195,-0.7305901751812712,0.0,0.0
0.7615230460921844,0.08433935026363852,-0.12642226555221348,-0.033962018496749555,0.16349120335583603,-0.5425120212780579,0.0,0.0
0.781563126252505,0.08160892922689696,-0.136521051837078,-0.030589128244589578,0.16864451260799884,-0.20952173343481262,0.0,0.0
0.8016032064128256,0.07880549787777624,-0.14017156745603548,-0.027286565827239487,0.1651281208675045,-0.08192615230340172,0.0,0.0
0.8216432865731462,0.07597790106647523,-0.14137984056505096,-0.02410811623742013,0.15892247949096777,-0.011925565691302875,0.0,0.0
0.8416833667334669,0.0731525462155535,-0.14126774254608615,-0.02107467997005853,0.15167181336808006,0.06250499013252989,0.0,0.0
0.8617234468937875,0.07035761098962798,-0.13974676129627636,-0.018210667063465205,0.14320064532966628,0.11196866898647918,0.0,0.0
0.8817635270541082,0.06761157908280814,-0.1373015953409922,-0.01552695708727863,0.13418549880932873,0.14813712505741333,0.0,0.0
0.9018036072144289,0.06492779747715942,-0.13418908028243615,-0.013027790806735554,0.12495831402715374,0.1782311792344935,0.0,0.0
0.9218436873747494,0.062317295269947955,-0.13052511036057332,-0.010715019042554058,0.11563858820907481,0.2293394421001908,0.0,0.0
0.9418837675350701,0.05979935480474399,-0.12589702326019814,-0.008603958957659431,0.10555300424473138,0.2414922083565045,0.0,0.0
0.9619238476953907,0.05737811459203407,-0.12106201063549628,-0.006688412341195759,0.0957773308231836,0.24886044675789346,0.0,0.0
0.9819639278557114,0.05505590178123993,-0.11611064053970685,-0.004960613733975487,0.08638993036101357,0.2531577110293846,0.0,0.0
1.002004008016032,0.05283389867808666,-0.11110015515766357,-0.003412184022341673,0.0774214855816907,0.2514569462215167,0.0,0.0
1.0220440881763526,0.050710998197505186,-0.10614502402907358,-0.002032365600239475,0.0689909211051099,0.5949067468794016,0.0,0.0
1.0420841683366733,0.04882082812807802,-0.09450850347135847,-0.0010133668630970196,0.05094993685712276,0.5896096895693017,0.0,0.0
1.062124248496994,0.04716102952902197,-0.08298992995280233,-0.0003456641901778189,0.03338513364596003,0.5064977823740935,0.0,0.0
1.0821643286573146,0.045698978638870284,-0.07310254450758431,2.3570973900822068e-05,0.018461758203932047,0.4419013830503423,0.0,0.0
1.1022044088176353,0.044409362431653866,-0.06448081036082093,0.00013445418094808242,0.005544160352363017,0.3433335117266664,0.0,0.0
1.122244488977956,0.04325368537104982,-0.057783853030202045,4.53442561817589e-05,-0.004455496238316176,0.27200817412063855,0.0,0.0
1.1422845691382766,0.04220413999332398,-0.05247726888629202,-0.0002025972987430958,-0.012397077746242735,0.21169227486326095,0.0,0.0
1.1623246492985972,0.04123726053064597,-0.04834397313390071,-0.0005756508008363615,-0.01865267510466328,0.14651990852109534,0.0,0.0
1.1823647294589177,0.04032772195322822,-0.045476928870887216,-0.0010380446054020118,-0.023119690228282523,0.09840302929881395,0.0,0.0
1.2024048096192383,0.03945688033091645,-0.04354208111558863,-0.0015645474443906726,-0.026325141949433035,0.06575842693938447,0.0,0.0
1.222444889779559,0.038612147791623315,-0.04223662696465644,-0.0021393831871298332,-0.028741787136958033,0.019263409942687604,0.0,0.0
1.2424849699398797,0.037775545524374975,-0.041830113362416904,-0.0027389783989033847,-0.029979760588677584,-0.023474126050558396,0.0,0.0
1.2625250501002003,0.036930568086440275,-0.04224887189673499,-0.0033421138619619184,-0.03015677315292669,-0.06222568917345859,0.0,0.0
1.282565130260521,0.036062266488642,-0.04341507988991398,-0.003929924451588609,-0.029390529481334523,-0.09542096742765196,0.0,0.0
1.3026052104208417,0.03515785556667805,-0.04522054609819711,-0.004486698767194454,-0.027838715780292247,-0.12348251892483678,0.0,0.0
1.3226452905811623,0.03420654458476151,-0.04756554909582712,-0.004999532863835347,-0.025641704832044674,-0.14589783088005795,0.0,0.0
1.342685370741483,0.03319973353056872,-0.0503405527096392,-0.005458548659703449,-0.022950789793405094,-0.1671628078648088,0.0,0.0
1.3627254509018036,0.03212925586477489,-0.05352388328969135,-0.005854201669384373,-0.01978265048404622,-0.1255415734863919,0.0,0.0
1.3827655310621243,0.03101146667079771,-0.05588945969885914,-0.00621333393752999,-0.01795661340728082,-0.20567771298471704,0.0,0.0
1.4028056112224447,0.029815197779716387,-0.05981344455406616,-0.006491333808553873,-0.013899993551194152,-0.12864063811758528,0.0,0.0
1.4228456913827654,0.02857059068697441,-0.06223035463709885,-0.006735018126674507,-0.012184215906031724,-0.25152936012200566,0.0,0.0
1.442885771543086,0.027229761027808014,-0.06704148295831984,-0.006874038890585102,-0.006951038195529743,-0.1376849949763007,0.0,0.0
1.4629258517034067,0.02583717355869259,-0.06962937345577125,-0.0069758670495627655,-0.005091407948883168,-0.2647677165219007,0.0,0.0
1.4829659318637274,0.02434326665846519,-0.07469534501137004,-0.006966806830529999,0.00045301095163834994,-0.11683879045094187,0.0,0.0
1.503006012024048,0.02280576325123618,-0.07687517036145045,-0.006933333189173885,0.001673682067805704,-0.2671188466474789,0.0,0.0
1.5230460921843687,0.021166010752066033,-0.08198762495850738,-0.006787327601304279,0.007300279393480273,-0.2419318688459352,0.0,0.0
1.5430861723446894,0.019433795874975346,-0.08661074385453435,-0.006542602520751948,0.01223625402761656,-0.5455525649247512,0.0,0.0
1.56312625250501,0.017490568105522866,-0.09716138847262394,-0.00602000877232132,0.026129687421531426,0.015409491515728457,0.0,0.0
1.5831663326653307,0.015555078936286004,-0.0967744584618431,-0.00554439079179856,0.02378089902613803,-0.6260634514341603,0.0,0.0
1.6032064128256511,0.013376873167581859,-0.10891028843520718,-0.004737511397153271,0.04034396973226444,-0.5139093462611253,0.0,0.0
1.6232464929859718,0.010999484677665552,-0.11886942449581536,-0.003659886951998088,0.053881222257759126,-0.025011618171445538,0.0,0.0
1.6432865731462925,0.008613384853248874,-0.11930499122083393,-0.0025907103999087376,0.05345882760446754,-0.2744526591365249,0.0,0.0
1.6633266533066131,0.006120928944740735,-0.12462279542540698,-0.0013773237484839447,0.060669332571239645,0.24437625087296938,0.0,0.0
1.6833667334669338,0.0037242296989611658,-0.11983496228897846,-0.00031557584177783126,0.05308739533530567,-0.2131916415493587,0.0,0.0
1.7034068136272544,0.0012444279561571211,-0.12399008714020222,0.0008688935174313106,0.0592234679604571,0.2603842131110686,0.0,0.0
1.723446893787575,-0.0011340140820756883,-0.11892210191164047,0.0019065242445613724,0.05188153635650308,-0.15995546897038165,0.0,0.0
1.7434869739478958,-0.0035754212762261505,-0.1220703597075231,0.0030497468947318345,0.057161132508523095,0.22632134094518164,0.0,0.0
1.7635270541082164,-0.005929386013383121,-0.11769823685784853,0.0040798096782448745,0.05150313917565199,-0.08907039548844542,0.0,0.0
1.783567134268537,-0.008319277497337546,-0.11949457419772128,0.005187702703915451,0.055394651283528815,-0.03195718780872312,0.0,0.0
1.8036072144288577,-0.010723126131892361,-0.1201924317277407,0.006347002599558329,0.05796499478214391,0.03603931904670698,0.0,0.0
1.8236472945891782,-0.013114730141667925,-0.11958020048877818,0.007525244214121831,0.05891208072817508,0.08090491510506503,0.0,0.0
1.8436873747494988,-0.015476919488851387,-0.11810946735917309,0.008703613022947584,0.058918440441287676,0.12402692492841455,0.0,0.0
1.8637274549098195,-0.017793204613214438,-0.11581425621815256,0.009864315745303207,0.058035136117781105,0.16694383017635653,0.0,0.0
1.8837675350701402,-0.02004717099290479,-0.11269831898451753,0.010989568290843967,0.05626262727703805,0.20482863747589694,0.0,0.0
1.9038076152304608,-0.0222243576614841,-0.10885933342896559,0.01206430715613329,0.05373694326446615,0.23961185197254178,0.0,0.0
1.9238476953907815,-0.024311499559229892,-0.1043570948872896,0.013074965150220913,0.0505328997043811,0.26948990476171775,0.0,0.0
1.9438877755511021,-0.02629722742915925,-0.0992863934964679,0.01401044069891122,0.04677377743451534,0.2951738905585699,0.0,0.0
1.9639278557114228,-0.028171787135262475,-0.09372798530516124,0.014861611754201516,0.04255855276451484,0.3161121702219781,0.0,0.0
1.9839679358717435,-0.02992725229101185,-0.0877732577874688,0.015621600760817485,0.03799945033079848,0.3353217899252625,0.0,0.0
2.004008016032064,-0.03155634495845648,-0.08145463337223137,0.01628396645505818,0.03311828471203469,0.35396003501892215,0.0,0.0
2.024048096192385,-0.03305198219458532,-0.07478186180644192,0.016841986250156073,0.027900989754894752,0.3579019342010689,0.0,0.0
2.0440881763527052,-0.03441278593054986,-0.0680401867982271,0.0172968751330355,0.02274444414397138,0.3615564111348628,0.0,0.0
2.064128256513026,-0.035637460668838015,-0.06123373691440768,0.017649365617580362,0.017624524227243185,0.3615991450013491,0.0,0.0
2.0841683366733466,-0.03672609089698932,-0.054431511407565275,0.017901656626268497,0.012614550434406681,0.35922001113719604,0.0,0.0
2.1042084168336674,-0.03767967740244207,-0.04767932527263726,0.018056731387083004,0.007753738040725385,0.3547720911844952,0.0,0.0
2.124248496993988,-0.0385000003479543,-0.041016147275611335,0.018118169728435905,0.0030719170676450653,0.3476658169777013,0.0,0.0
2.1442885771543083,-0.03918985035846731,-0.034492500525650796,0.018090515481287938,-0.0013827123573983994,0.33854215224078293,0.0,0.0
2.164328657314629,-0.0397527797123732,-0.028146467695294507,0.01797893028701396,-0.005579259713699057,0.3275819648621533,0.0,0.0
2.1843687374749496,-0.04019303324894396,-0.022012676828538174,0.01778912041170456,-0.009490493765469777,0.315398428220076,0.0,0.0
2.2044088176352705,-0.040515310740072044,-0.016113874556404287,0.017527014164392538,-0.01310531236560113,0.3020777398160424,0.0,0.0
2.224448897795591,-0.04072473496074477,-0.010471211033636053,0.017198748927993807,-0.016413261819936575,0.2879273362732237,0.0,0.0
2.244488977955912,-0.040826733487961446,-0.0050999263608339195,0.016810530112135628,-0.019410940792908955,0.2727377524588681,0.0,0.0
2.2645290581162323,-0.04082712222271562,-1.9436737708389447e-05,0.016368792853418256,-0.022086862935868496,0.25727999944600594,0.0,0.0
2.284569138276553,-0.040731806377850927,0.004765792243234469,0.015879791700842995,-0.024450057628763025,0.24182779993022593,0.0,0.0
2.3046092184368736,-0.04054667546313482,0.00925654573580545,0.015349479999542975,-0.026515585065001034,0.22592739790365843,0.0,0.0
2.3246492985971945,-0.040277782058737416,0.013444670219870258,0.014783812860151764,-0.02828335696956057,0.2106906541190362,0.0,0.0
2.344689378757515,-0.03993090965476073,0.017343620198834273,0.01418813441371789,-0.029783922321693714,0.19729433540830957,0.0,0.0
2.3647294589178354,-0.039511114984510806,0.020989733512496368,0.013566523216657373,-0.031080559853025783,0.18234283269192164,0.0,0.0
2.3847695390781563,-0.03902405422772867,0.024353037839106806,0.012923804076939466,-0.03213595698589534,0.1662770705095696,0.0,0.0
2.4048096192384767,-0.0384758123384168,0.02741209446559357,0.01226532060766434,-0.03292417346375629,0.15109410946666577,0.0,0.0
2.4248496993987976,-0.037872125281623065,0.030184352839686596,0.01159580081750605,-0.03347598950791447,0.13630396573320683,0.0,0.0
2.444889779559118,-0.037218572588722944,0.032677634645005886,0.010919673512425595,-0.03380636525402277,0.12163724816271555,0.0,0.0
2.464929859719439,-0.03652068374760281,0.03489444205600664,0.010241253786943771,-0.03392098627409115,0.10763629130718189,0.0,0.0
2.4849699398797593,-0.03578372780658169,0.036847797051055925,0.009564452992485074,-0.033840039722934874,0.09376277489598402,0.0,0.0
2.50501002004008,-0.0350129245583349,0.03854016241233956,0.00889311826926225,-0.0335667361611412,0.08075264727041936,0.0,0.0
2.5250501002004007,-0.03421315845650507,0.03998830509149145,0.008230626303039053,-0.03312459831115979,-0.01598211381159023,0.0,0.0
2.5450901803607215,-0.03342198786890682,0.03955852937991233,0.0076293844263899836,-0.030062093832453507,-0.011209591897574988,0.0,0.0
2.565130260521042,-0.03263737817291929,0.03923048479937653,0.0070828097789430115,-0.027328732372348594,-0.005990046055383782,0.0,0.0
2.5851703406813624,-0.031857135957350874,0.03901211077842092,0.006584402656387232,-0.024920356127788933,-0.001895125169412106,0.0,0.0
2.6052104208416833,-0.031079520459868643,0.03888077487411165,0.006128624890070496,-0.022788888315836857,0.0025594526239382876,0.0,0.0
2.6252505010020037,-0.030302662779809007,0.03884288400298172,0.005709996698822016,-0.020931409562423977,0.006293235033448509,0.0,0.0
2.6452905811623246,-0.029524985929345902,0.038883842523155174,0.0053236941666062595,-0.019315126610787815,0.00964808505621394,0.0,0.0
2.665330661322645,-0.028745070049432223,0.03899579399568392,0.004965318857128636,-0.01791876547388118,0.012521648711783358,0.0,0.0
2.685370741482966,-0.027961691091682124,0.039168947887504885,0.0046309299583361194,-0.016719444939625842,0.014847396514358959,0.0,0.0
2.7054108216432864,-0.027173845651465293,0.039392272010841604,0.004317058355201799,-0.01569358015671605,0.016671463904632092,0.0,0.0
2.7254509018036073,-0.026380731971209267,0.039655684012801354,0.0040206577705409535,-0.014820029233042284,0.017978739638149808,0.0,0.0
2.7454909819639277,-0.02558175496468815,0.039948850326055774,0.003739094398307207,-0.014078168611687307,0.018845236263279393,0.0,0.0
2.7655310621242486,-0.024776495800540387,0.040262958207388136,0.0034700858325836265,-0.013450428286179025,0.019277888743970125,0.0,0.0
2.785571142284569,-0.023964708542218886,0.04058936291607511,0.0032116826199559993,-0.012920160631381364,0.019317040429362196,0.0,0.0
2.8056112224448895,-0.02314630384647654,0.04092023478711727,0.0029622323681299623,-0.012472512591301844,0.018920339983737336,0.0,0.0
2.8256513026052104,-0.02232136501652785,0.04124694149743449,0.0027203941013570292,-0.012091913338646641,0.01822322770755086,0.0,0.0
2.845691382765531,-0.021490094765541,0.0415635125493426,0.0024850505765413164,-0.011767176240785635,0.0171330238823569,0.0,0.0
2.8657314629258517,-0.020652851062536014,0.04186218515024925,0.002255355453464611,-0.011484756153835266,0.015820388478545753,0.0,0.0
2.885771543086172,-0.019810080293949626,0.04213853842931951,0.0020306281270521327,-0.01123636632062391,0.014340948170452965,0.0,0.0
2.905811623246493,-0.018962295361636836,0.04238924661563947,0.0018103168956787306,-0.011015561568670113,0.012701413544041772,0.0,0.0
2.9258517034068134,-0.0181100729061292,0.04261112277538175,0.0015939915567698049,-0.010816266945446283,0.010970900291806453,0.0,0.0
2.9458917835671343,-0.017254026212614217,0.04280233467574929,0.0013813002632437608,-0.010634564676302208,0.008970777837510675,0.0,0.0
2.9659318637274548,-0.016394874816399202,0.04295756981075069,0.0011720717988073762,-0.010461423221819236,0.007116381725967815,0.0,0.0
2.9859719438877756,-0.015533282379118447,0.04307962186403777,0.0009660715382590418,-0.010300013027416715,0.004912955349377076,0.0,0.0
3.006012024048096,-0.014670049688388817,0.043161634536481516,0.0007632893871285049,-0.010139107556526845,0.002624701696921424,0.0,0.0
3.0260521042084165,-0.013806011556044006,0.04320190661724054,0.0005637851663811609,-0.0099752110373672,0.07090554500855407,0.0,0.0
