time,x,x_dot,theta,theta_dot,u,x_ref,theta_ref
0.0,-0.548583230895455,0.01864345203394646,-0.043219915214325194,0.0247398571353227,-5.79236050645039,0.0,0.0
0.02004008016032064,-0.5504580126171703,-0.09373908608576537,-0.039612789526717915,0.18035628438036413,-7.35481760048148,0.0,0.0
0.04008016032064128,-0.5551911906058529,-0.23665889943412982,-0.03195682580251057,0.3827981862103672,-4.248334703302424,0.0,0.0
0.06012024048096192,-0.5615729940496997,-0.3190901721923443,-0.02201848715704536,0.4969169322732608,-4.332438215744588,0.0,0.0
0.08016032064128256,-0.569639164920621,-0.40330854354606616,-0.009685164907746116,0.6166661124649622,-2.2506297826921857,0.0,0.0
0.1002004008016032,-0.5785808801035218,-0.44708575914503645,0.0039036796331008514,0.6794422270423484,-1.9721568691996254,0.0,0.0
0.12024048096192384,-0.5882932652144358,-0.4856192555456977,0.018670737452610678,0.7383528909754913,-0.5047113666397804,0.0,0.0
0.1402805611222445,-0.5982077486003926,-0.49572416929784047,0.03385040952221046,0.758983603479989,2.1567375551043115,0.0,0.0
0.16032064128256512,-0.6072900014512048,-0.4541126425406109,0.04798210831118116,0.7065849394485348,1.3161308849633926,0.0,0.0
0.18036072144288576,-0.6158720149925938,-0.42910067706944727,0.061646630275382815,0.6832260982100826,2.1101013479634627,0.0,0.0
0.2004008016032064,-0.6236479000693589,-0.38879425383825156,0.07446703667810955,0.6410203201363373,2.6940498650425027,0.0,0.0
0.22044088176352705,-0.6303935833307723,-0.3372841630706722,0.08618457388736023,0.585876860462534,2.6596086493337308,0.0,0.0
0.24048096192384769,-0.63612597201078,-0.28661943400038703,0.09689457850714785,0.5355002309893808,2.9828965775465806,0.0,0.0
0.2605210420841683,-0.6407221930164273,-0.22981105028236348,0.10647787881508895,0.479165015397055,3.2040019657967878,0.0,0.0
0.280561122244489,-0.644098950320565,-0.16883786520688168,0.11486799634928094,0.41950587670959955,3.4045363386077905,0.0,0.0
0.3006012024048096,-0.6461806557973113,-0.1040852738373184,0.1220030617548144,0.3567532702766729,3.5840185935724422,0.0,0.0
0.32064128256513025,-0.6468995820836944,-0.035946314319152864,0.12782557298959973,0.2911255617392662,3.717275476280017,0.0,0.0
0.3406813627254509,-0.6462056403717827,0.034697085595583405,0.13229648667275237,0.22354568415763235,3.7840199026510417,0.0,0.0
0.3607214428857715,-0.6440742559134429,0.10656922291699093,0.1354065643704127,0.15550388488301697,3.8677978338287455,0.0,0.0
0.3807615230460922,-0.6404737896393796,0.18002331370316252,0.13712781796522217,0.08606267974047269,3.869024582195734,0.0,0.0
0.4008016032064128,-0.6354043315888934,0.2534729025243073,0.13747091699059066,0.017154951268424673,3.7877533064796816,0.0,0.0
0.42084168336673344,-0.6288976758948875,0.3253327847002948,0.13648517380598932,-0.04928715923006746,3.7754632028444997,0.0,0.0
0.4408817635270541,-0.6209583067043349,0.3969684595276326,0.13417121963056122,-0.11569770877140458,3.588262196888961,0.0,0.0
0.4609218436873747,-0.6116584478082451,0.4649929448044915,0.13062220570495026,-0.17745069628054772,3.3434088217422864,0.0,0.0
0.48096192384769537,-0.6010924110719628,0.5283018368141177,0.1259566789210243,-0.23327633919629798,3.068551030360836,0.0,0.0
0.501002004008016,-0.5893658747155867,0.5863268178188077,0.12030347880286413,-0.2826600059080085,2.8058545785792366,0.0,0.0
0.5210420841683366,-0.5765795015549603,0.6393186580313185,0.11377823821000063,-0.32626202964317447,5.032572179693435,0.0,0.0
0.5410821643286573,-0.5618632030533327,0.7358149250813782,0.10504578029744852,-0.4366228956276056,4.308033135534794,0.0,0.0
0.561122244488978,-0.5454966233747587,0.818328983928699,0.09446923214351104,-0.5288274076968736,3.257772868657704,0.0,0.0
0.5811623246492986,-0.5278859880750654,0.8805317649846649,0.08259038840336796,-0.5939421870071536,2.474139086201185,0.0,0.0
0.6012024048096192,-0.5093333461265579,0.9276320974253754,0.06978900730538809,-0.6400690548989938,1.6568839722906492,0.0,0.0
0.6212424849699398,-0.49015374959450325,0.9589798266027326,0.05645983979302048,-0.6664583756183805,0.9691177088404185,0.0,0.0
0.6412825651302605,-0.4706117225322172,0.977101353114301,0.042919832031686034,-0.6770003880667222,0.6196753729371625,0.0,0.0
0.6613226452905812,-0.45083981654343225,0.9885952994392487,0.02928767216157207,-0.6816079935056983,0.06415763431928212,0.0,0.0
0.6813627254509018,-0.4310510003173139,0.9894408113059168,0.01580225299431917,-0.6742709583626448,-0.509518479726752,0.0,0.0
0.7014028056112224,-0.4114653963600751,0.979280197861941,0.002714279150141311,-0.654398692208893,-0.8695480942496887,0.0,0.0
0.721442885771543,-0.3922198678832679,0.9622764238403602,-0.009847951999847452,-0.6281115574994381,-1.2449549394756585,0.0,0.0
0.7414829659318637,-0.37345740305177455,0.9381232415746668,-0.021743944239106458,-0.5947996119629503,-1.5730592261285516,0.0,0.0
0.7615230460921844,-0.3553026853572078,0.9077358847283374,-0.032856865008340064,-0.5556460384616804,-1.9417085235306555,0.0,0.0
0.781563126252505,-0.33789640056087183,0.8703142398167983,-0.04304148616040912,-0.5092310576034529,-2.1954519214668506,0.0,0.0
0.8016032064128256,-0.32133461966055904,0.8280890450156395,-0.05221416293244738,-0.4586338386019129,-2.1733421165078086,0.0,0.0
0.8216432865731462,-0.3056060424286609,0.7864288615949054,-0.06044620518718524,-0.4116021127368932,-2.355373568428763,0.0,0.0
0.8416833667334669,-0.29077926846144114,0.7413386983609884,-0.06768384180279449,-0.3618818307804627,-2.3649319759030605,0.0,0.0
0.8617234468937875,-0.27685588176134784,0.696169335004666,-0.07396777347487633,-0.31419658360409236,-2.5047107664069412,0.0,0.0
0.8817635270541082,-0.26388853440370696,0.6483673678820441,-0.07925672325866287,-0.2644474891893266,-2.563855411035378,0.0,0.0
0.9018036072144289,-0.2518987073410339,0.5994913531336524,-0.08355015948195167,-0.21467181116444026,-2.588631714810481,0.0,0.0
0.9218436873747494,-0.24089476755639636,0.5501969892318781,-0.08686124091233292,-0.16555407151906257,-2.7392564730828375,0.0,0.0
0.9418837675350701,-0.23093445652702052,0.4980155514687922,-0.08912353861278595,-0.1131148850226513,-2.7870286637847723,0.0,0.0
0.9619238476953907,-0.2220357129758867,0.4449371775566917,-0.09032382162909212,-0.06001415081530858,-3.07497206357804,0.0,0.0
0.9819639278557114,-0.21431046230365114,0.38626253361177754,-0.09030218671368816,0.0010817457701983793,-2.898141774916165,0.0,0.0
1.002004008016032,-0.20768974182806124,0.33103602377949476,-0.08916146201299187,0.05703623503481469,-2.69552470338768,0.0,0.0
1.0220440881763526,-0.20209487451772154,0.279743365516985,-0.08701227530806531,0.10745933524632797,-3.8131988664011693,0.0,0.0
1.0420841683366733,-0.1979624135774054,0.2066230470158072,-0.08318981048420923,0.19112324119280388,-2.2799405095770577,0.0,0.0
1.062124248496994,-0.19469553165333753,0.16334409620339368,-0.07856256232021615,0.2313624081996543,-2.408504904389233,0.0,0.0
1.0821643286573146,-0.1923457536518116,0.11748890007629575,-0.07302594258984733,0.2768309865184406,-1.2786834357348082,0.0,0.0
1.1022044088176353,-0.19047401667735472,0.09358684872284503,-0.06720336216440007,0.2911290212723638,-0.9067886740590884,0.0,0.0
1.122244488977956,-0.18893692795954622,0.0768544358904256,-0.061274867047905884,0.2964247558247089,0.2625125920159582,0.0,0.0
1.1422845691382766,-0.18728001811007705,0.08284549247345858,-0.05588550016679876,0.2694683440553562,-0.14995882986285536,0.0,0.0
1.1623246492985972,-0.18566571000198398,0.08071540540465352,-0.0507606008629172,0.2562449651940779,0.014876122202731573,0.0,0.0
1.1823647294589177,-0.18403114077421254,0.08172846138857154,-0.04596419295934419,0.2398203951786507,0.09280160997213177,0.0,0.0
1.2024048096192383,-0.18234726062287765,0.08419400756674485,-0.041511632713391464,0.22262801229763612,0.16677915966683138,0.0,0.0
1.222444889779559,-0.1805864636085445,0.0880398507166575,-0.037418142252907294,0.2046745230242083,0.21802534524668915,0.0,0.0
1.2424849699398797,-0.1787299123806194,0.09282756139625496,-0.033687922867813115,0.18651096925470878,0.25823047184552983,0.0,0.0
1.2625250501002003,-0.17676297600690555,0.09834681868569257,-0.03032100771164355,0.16834575780847824,0.2608862683687319,0.0,0.0
1.282565130260521,-0.174685573400845,0.10387013030302687,-0.027297761156079563,0.15116232777819935,0.2710198811856684,0.0,0.0
1.3026052104208417,-0.17249460946498416,0.1095481967930425,-0.02460507743246248,0.1346341861808543,0.26707909014966535,0.0,0.0
1.3226452905811623,-0.17019238805166573,0.11511107066592105,-0.022223698102567926,0.11906896649472767,0.26559527240104014,0.0,0.0
1.342685370741483,-0.16778016652130268,0.12061107651815303,-0.020137758142622933,0.10429699799724969,0.2558771552034342,0.0,0.0
1.3627254509018036,-0.16526233179349642,0.12589173639031312,-0.018328434987409433,0.09046615776067493,0.24981780614673896,0.0,0.0
1.3827655310621243,-0.16264176466396374,0.13102835647663344,-0.016780786169629733,0.07738244088898492,0.23268558951158289,0.0,0.0
1.4028056112224447,-0.15992559238918297,0.13580861373903896,-0.015475040081425721,0.06528730441020056,0.21002930324693325,0.0,0.0
1.4228456913827654,-0.1571230289937544,0.14012816977142759,-0.01438971699754569,0.05426615419400155,0.18361165338448857,0.0,0.0
1.442885771543086,-0.1542446934626195,0.14391677655674637,-0.013502525134132807,0.044359593170644224,0.15741891865370938,0.0,0.0
1.4629258517034067,-0.15130106050164757,0.14718164804859582,-0.012792552160413268,0.03549864868597696,0.13301110320251433,0.0,0.0
1.4829659318637274,-0.14830185770145496,0.14996014000963115,-0.012241046238329297,0.027575296104198573,0.10780064307029259,0.0,0.0
1.503006012024048,-0.14525708057471484,0.1522388563370053,-0.011829784586051134,0.020563082613908136,0.0829172754292132,0.0,0.0
1.5230460921843687,-0.14217655689123512,0.15402618417398545,-0.01154161959261491,0.014408249671811209,-0.07328985683552328,0.0,0.0
1.5430861723446894,-0.13912132465924681,0.1527616115994156,-0.01128336447154586,0.012912756053452507,-0.0764936668115811,0.0,0.0
1.56312625250501,-0.1360927080836448,0.15143082878010136,-0.011051516678004759,0.01159238967705506,-0.09645533143293285,0.0,0.0
1.5831663326653307,-0.13309856309809498,0.14970724927749127,-0.010832937959130921,0.0109289359436919,-0.05336238908121647,0.0,0.0
1.6032064128256511,-0.13012213650297683,0.14882132975590792,-0.010651456457666726,0.009074075073209745,-0.03224712746625766,0.0,0.0
1.6232464929859718,-0.12715524064492703,0.14834479290248978,-0.010518278851331076,0.006658880316782532,-0.03745760087983873,0.0,0.0
1.6432865731462925,-0.12419994692877112,0.1477646858077953,-0.01042951757387984,0.004438063872561796,-0.035191376206201525,0.0,0.0
1.6633266533066131,-0.12125539645456804,0.14722752371015418,-0.010385938522606627,0.002178952563660656,-0.04783095908248103,0.0,0.0
1.6833667334669338,-0.11832653396437275,0.14644312450976435,-0.010379873538805928,0.00030324919003492205,-0.03371630076144043,0.0,0.0
1.7034068136272544,-0.1154078533312213,0.14593403165757227,-0.010419540570116154,-0.0019833515655112385,-0.04888921341479811,0.0,0.0
1.723446893787575,-0.1125052640068326,0.14512946621943557,-0.01049631454663259,-0.0038386988258217927,-0.04052942673653673,0.0,0.0
1.7434869739478958,-0.10961548180985824,0.14448910984871796,-0.010615569535893002,-0.005962749463020594,-0.07441496057274719,0.0,0.0
1.7635270541082164,-0.10675169547696525,0.1431893166446493,-0.01075823667006297,-0.007133356708498413,-0.06426791564291262,0.0,0.0
1.783567134268537,-0.10390990451374588,0.14208954816096883,-0.010931150965905967,-0.008645714792149867,-0.08871044358951377,0.0,0.0
1.8036072144288577,-0.1010995973961199,0.14051535588129896,-0.011121105552300713,-0.009497729319737325,-0.11617388832366492,0.0,0.0
1.8236472945891782,-0.09833143653892594,0.13840804285969832,-0.011313234051484523,-0.009606424959190485,-0.07691539161620625,0.0,0.0
1.8436873747494988,-0.09559004732747826,0.13706946057238395,-0.011531711580958753,-0.010923876473711512,-0.1404279126903803,0.0,0.0
1.8637274549098195,-0.09290015115206718,0.13449480877055453,-0.011740765543007705,-0.010452698102447608,-0.12860692694531592,0.0,0.0
1.8837675350701402,-0.09025707527648995,0.1321537937788612,-0.011948628755306716,-0.010393160614950525,-0.10991956159460184,0.0,0.0
1.9038076152304608,-0.08765346789911752,0.13018036886862147,-0.0121675428049637,-0.01094570248284922,-0.15026610834218665,0.0,0.0
1.9238476953907815,-0.08510501038189128,0.12742287586131223,-0.012375288554519097,-0.010387287477769885,-0.1104574937815222,0.0,0.0
1.9438877755511021,-0.08259610898766287,0.1254450697114203,-0.012596461110586552,-0.011058627803372766,-0.16528163236372181,0.0,0.0
1.9639278557114228,-0.08014809388854689,0.12240075495579852,-0.012800387481043542,-0.010196318522849494,-0.13387540718682686,0.0,0.0
1.9839679358717435,-0.07774865124316818,0.1199721322689356,-0.013006723856514255,-0.010316818773535701,-0.14320726483595608,0.0,0.0
2.004008016032064,-0.07540136339951835,0.11736439218249196,-0.01321131311859741,-0.010229463104157779,-0.1587296927159522,0.0,0.0
2.024048096192385,-0.07311222889384873,0.11445672528348053,-0.013406366207605939,-0.009752654450426388,-0.5039065523610783,0.0,0.0
2.0440881763527052,-0.07101588705167224,0.10481709210882496,-0.013391214738875567,0.0007575734365186104,-0.33174638153543934,0.0,0.0
2.064128256513026,-0.06904516168968486,0.0985362680993686,-0.013266461934379246,0.006237640224816078,-0.26532597884929615,0.0,0.0
2.0841683366733466,-0.06717416995492535,0.0935495867379755,-0.013070171072906344,0.009814543073645078,-0.22239496808371442,0.0,0.0
2.1042084168336674,-0.06538621555332244,0.08939772008014558,-0.012826215058992613,0.01219780069568653,-0.13830701408980273,0.0,0.0
2.124248496993988,-0.0636485555214899,0.08688300159162726,-0.012582239784590292,0.012198763720116048,-0.2472214272890011,0.0,0.0
2.1442885771543083,-0.062003760541712805,0.08223974898885471,-0.012273000366199547,0.015461970919537214,-0.10667416547441386,0.0,0.0
2.164328657314629,-0.060397074696703315,0.08033429225047445,-0.01197875560962513,0.014712237828720852,-0.21199699094895297,0.0,0.0
2.1843687374749496,-0.058869681596274044,0.07636965502146356,-0.011636043959743245,0.017135582494094224,-0.12045329514715689,0.0,0.0
2.2044088176352705,-0.057385957126099334,0.07418622350873537,-0.011296250369622366,0.016989679506043968,-0.16955445995278176,0.0,0.0
2.224448897795591,-0.055965159054612475,0.07103990357434305,-0.010928511209242783,0.01838695801897916,-0.05207195160024673,0.0,0.0
2.244488977955912,-0.054561548471652586,0.07018052914799429,-0.010599226688268976,0.01646422604869033,-0.059398551681707,0.0,0.0
2.2645290581162323,-0.05317807873943805,0.06917348661072693,-0.01030203481627084,0.014859593599906793,-0.06248880608074246,0.0,0.0
2.284569138276553,-0.051816040910827726,0.06810189143051598,-0.01003325393115942,0.01343904425557106,-0.05333963367399322,0.0,0.0
2.3046092184368736,-0.050471941792118606,0.067204955935456,-0.009796540836492916,0.011835654733325209,-0.058363929780590566,0.0,0.0
2.3246492985971945,-0.049147809815360224,0.06620659883791909,-0.009587463932219122,0.010453845213689729,-0.053123439020165475,0.0,0.0
2.344689378757515,-0.04784165993529506,0.06530749400325842,-0.009407770182379373,0.008984687491987445,-0.06074056926005144,0.0,0.0
2.3647294589178354,-0.046556516031585886,0.0642571951854585,-0.009251870863527871,0.0077949659425750484,-0.057153566819332355,0.0,0.0
2.3847695390781563,-0.045291023050210086,0.06327464906879009,-0.009120881078841238,0.006549489234331684,-0.06617197839771663,0.0,0.0
2.4048096192384767,-0.044048737729128054,0.0621142660541017,-0.009008699533698043,0.00560907725715976,-0.06281077411098614,0.0,0.0
2.4248496993987976,-0.042828380597846216,0.06101785656409201,-0.008916584933486392,0.004605730010582508,-0.07253484899458017,0.0,0.0
2.444889779559118,-0.041633772621677015,0.059730398808459956,-0.008838268336915252,0.003915829828557028,-0.06910047226317387,0.0,0.0
2.464929859719439,-0.04046359607128821,0.05850882751944038,-0.008775264803575582,0.003150176666983519,-0.07902241652344119,0.0,0.0
2.4849699398797593,-0.03932174078345257,0.05709276439178201,-0.008721373211917767,0.0026945795828907685,-0.0757389472701505,0.0,0.0
2.50501002004008,-0.038206940916363986,0.05573999335442902,-0.00867817437397045,0.0021599418973658573,-0.08446477658231617,0.0,0.0
2.5250501002004007,-0.03712261387881815,0.05421635187729195,-0.008640291715117187,0.0018941329426631608,-0.20519519474309816,0.0,0.0
2.5450901803607215,-0.03611588242815729,0.05033657253304288,-0.008536865268579863,0.005171322326866205,-0.18818068004657462,0.0,0.0
2.565130260521042,-0.03518013674784032,0.04678728401584871,-0.008377195356722579,0.00798349559286415,-0.161694595820306,0.0,0.0
2.5851703406813624,-0.034305087110906754,0.04375248184667816,-0.00817576800535671,0.01007136756829349,-0.15007205653872807,0.0,0.0
2.6052104208416833,-0.03348625587062275,0.0409415620142002,-0.007938111500892719,0.011882825223199505,-0.13484525187988364,0.0,0.0
2.6252505010020037,-0.03271776929168026,0.03842432894712462,-0.007671634002246512,0.013323874932310372,-0.11382029726075316,0.0,0.0
2.6452905811623246,-0.03199149931671184,0.03631349874842093,-0.007386953603362236,0.014234019944213819,-0.08878258759005478,0.0,0.0
2.665330661322645,-0.031297757223929495,0.034687104639116985,-0.007096920949731776,0.01450163268152298,-0.003141196167524868,0.0,0.0
2.685370741482966,-0.030603206767963097,0.03472752279831994,-0.006849803533207312,0.0123558708262232,-0.014525626463285896,0.0,0.0
2.7054108216432864,-0.029912361251986354,0.034542275798837195,-0.006637383680908878,0.010620992614921696,-0.023840408722698807,0.0,0.0
2.7254509018036073,-0.02922891641178301,0.034172242010167206,-0.006452873145636652,0.009225526763611333,-0.024060656781648884,0.0,0.0
2.7454909819639277,-0.028553011073895344,0.033795266894383315,-0.006294979587511525,0.007894677906256337,-0.03358071474670317,0.0,0.0
2.7655310621242486,-0.02788840545472283,0.03323028095862565,-0.006157138489867608,0.0068920548821958545,-0.0350839029347887,0.0,0.0
2.785571142284569,-0.027235725642512455,0.03263399061051877,-0.006037601326474122,0.005976858169674301,-0.03956639767950123,0.0,0.0
2.8056112224448895,-0.026596755079809586,0.03194852813514343,-0.005932992213705589,0.0052304556384266876,-0.04062217313321778,0.0,0.0
2.8256513026052104,-0.025971935739489627,0.031240967015997954,-0.00584203389875958,0.00454791574730045,-0.044826239930595445,0.0,0.0
2.845691382765531,-0.025362934224359965,0.030450075756483144,-0.005761693578597283,0.0040170160081148595,-0.04535560127358776,0.0,0.0
2.8657314629258517,-0.02476998013195221,0.029647704620387738,-0.005691154968624531,0.003526930498637627,-0.04923410794507311,0.0,0.0
2.885771543086172,-0.02419460717120723,0.02876864803724901,-0.005627704468737581,0.003172524994347481,-0.04922070464349001,0.0,0.0
2.905811623246493,-0.02363682829852113,0.027888943634304976,-0.0055709497973917095,0.002837733567293569,-0.05276748787918575,0.0,0.0
2.9258517034068134,-0.02309804382554893,0.026939223648610053,-0.005518458319472971,0.0026245738959369247,-0.05223088138507089,0.0,0.0
2.9458917835671343,-0.022578059400631293,0.025999221245881915,-0.0054702129152931446,0.002412270208991322,-0.05546337802083533,0.0,0.0
2.9659318637274548,-0.022078150254121336,0.02499545732549787,-0.005424018453728865,0.0023097230782139658,-0.05435394366119851,0.0,0.0
2.9859719438877756,-0.02159789669765308,0.024012677823412765,-0.005380232607541754,0.0021892923093555687,-0.057417753649527954,0.0,0.0
3.006012024048096,-0.021138506857723914,0.022969491996458292,-0.0053367870419308554,0.00217227828054493,-0.054949317357866574,0.0,0.0
3.0260521042084165,-0.020699029941216508,0.02197384582537028,-0.005294851731484355,0.002096765522325047,-0.20012919161481707,0.0,0.0
3.0460921843687374,-0.0203361308235805,0.018144955881800373,-0.005169237215107396,0.006280725818847959,-0.06192916670980106,0.0,0.0
3.066132264529058,-0.01999591637249894,0.017010722554077984,-0.005039993401286914,0.0064621906910240666,-0.059427347788774766,0.0,0.0
