time,x,x_dot,theta,theta_dot,u,x_ref,theta_ref
0.0,0.9672079785702423,0.05073376342392158,-0.013927784708206603,-0.07925499407042161,5.31220661387218,0.0,0.0
0.02004008016032064,0.9702995758749122,0.15457986523349437,-0.018707861348734714,-0.23900383202640563,4.53916056893115,0.0,0.0
0.04008016032064128,0.9751677667645575,0.2434095444822629,-0.026260624924731683,-0.3776381787998484,3.7910342582763357,0.0,0.0
0.06012024048096192,0.9815226938373932,0.31774635364178194,-0.03619562968374335,-0.49675023795058326,3.0317136413361205,0.0,0.0
0.08016032064128256,0.9890707520707069,0.3774029116656876,-0.0481306927462966,-0.5967531531276623,2.2693993809514375,0.0,0.0
0.1002004008016032,0.9975176774047492,0.4223462667021091,-0.061694376379601734,-0.6781841816652567,1.5089739121228265,0.0,0.0
0.12024048096192384,1.0065703610820262,0.4526341838638512,-0.07652670879683618,-0.7416166208617221,0.7550865945737041,0.0,0.0
0.1402805611222445,1.0159385937999819,0.46841163589778506,-0.09227994189067648,-0.7876616546920147,0.012516370888792538,0.0,0.0
0.16032064128256512,1.0253368775462304,0.4699141873124242,-0.10861952954945386,-0.8169793829388695,-0.7137136234678871,0.0,0.0
0.18036072144288576,1.0344863437489449,0.4574733101357263,-0.12522535172183547,-0.8302911086190805,-1.418295058688141,0.0,0.0
0.2004008016032064,1.0431167864515078,0.43152213512814686,-0.14179316082951288,-0.8283904553838699,-2.0956533624828113,0.0,0.0
0.22044088176352705,1.050968795777255,0.392600466287364,-0.15803619399610502,-0.8121516583296072,-2.7400222845648092,0.0,0.0
0.24048096192384769,1.057795956230462,0.3413580226603429,-0.1736868707583111,-0.7825338381103037,-3.3455679213805047,0.0,0.0
0.2605210420841683,1.063367056906227,0.2785550337882492,-0.18849848138589873,-0.7405805313793811,-3.906553249074271,0.0,0.0
0.280561122244489,1.067468247288838,0.20505951913054635,-0.20224676559655758,-0.6874142105329418,-4.41753116744989,0.0,0.0
0.3006012024048096,1.0699050638730083,0.12184082920851486,-0.21473128485642992,-0.6242259629936178,-4.873551068333017,0.0,0.0
0.32064128256513025,1.0705042501602207,0.029959314360616232,-0.22577650278502934,-0.5522608964299709,-5.270361533729356,0.0,0.0
0.3406813627254509,1.0691152962668784,-0.06944769466711499,-0.23523250626094738,-0.47280017379590156,-5.604590659959017,0.0,0.0
0.3607214428857715,1.065611634593248,-0.17518308368151955,-0.24297532310109646,-0.38714084200745397,-5.873886404459319,0.0,0.0
0.3807615230460922,1.0598914442251555,-0.2860095184046239,-0.24890681869426456,-0.2965747796584057,-6.077002669699799,0.0,0.0
0.4008016032064128,1.0518780376435413,-0.40067032908071476,-0.2529541813582418,-0.20236813319886293,-6.213822452727221,0.0,0.0
0.42084168336673344,1.0415198268038144,-0.5179105419863481,-0.2550690318781521,-0.10574252599551318,-6.285316509427673,0.0,0.0
0.4408817635270541,1.0287898891392064,-0.6364968832303933,-0.2552262141843403,-0.007859115309412315,-6.293443374984852,0.0,0.0
0.4609218436873747,1.0136851749189124,-0.7552357110147054,-0.2534223394311052,0.09019373766175558,-6.241002888119702,0.0,0.0
0.48096192384769537,0.9962254134677268,-0.8729880725592846,-0.2496741636523714,0.18740878893668927,-6.131459509561047,0.0,0.0
0.501002004008016,0.9764517856535097,-0.9886813907108571,-0.2440168795073876,0.2828642072491905,-5.968753195692491,0.0,0.0
0.5210420841683366,0.9544254333717712,-1.1013176140869216,-0.23650239616046828,0.37572416734596625,-5.75711451662999,0.0,0.0
0.5410821643286573,0.9302258740136072,-1.2099779679082001,-0.2271976695601353,0.4652363300166498,-5.5008977188428405,0.0,0.0
0.561122244488978,0.9039493802769271,-1.313824686834007,-0.2161831301711954,0.5507269694469954,-5.204441374717558,0.0,0.0
0.5811623246492986,0.8757073747129784,-1.412100278197432,-0.20355123848525278,0.6315945842971301,-4.871961975247694,0.0,0.0
0.6012024048096192,0.8456248756868373,-1.5041249513070587,-0.18940518208211246,0.7073028201570162,-4.5074819494307565,0.0,0.0
0.6212424849699398,0.8138390183949794,-1.5892928645928937,-0.17385771295274083,0.7773734564685815,-4.114790514794526,0.0,0.0
0.6412825651302605,0.7804976623447105,-1.667067802513443,-0.15703011112381152,0.8413800914464653,-3.6974336073355953,0.0,0.0
0.6613226452905812,0.7457580860345906,-1.7369788155059938,-0.13905125086537326,0.8989430129219131,-3.2587278516476057,0.0,0.0
0.6813627254509018,0.7097857609381502,-1.798616254822023,-0.1200567391361321,0.9497255864620583,-2.801792953604406,0.0,0.0
0.7014028056112224,0.6727531904819484,-1.8516285228100895,-0.10018809242683535,0.9934323354648373,-2.329596834213998,0.0,0.0
0.721442885771543,0.6348387955309814,-1.8957197475483492,-0.07959191765373949,1.0298087386547932,-1.8450080924333907,0.0,0.0
0.7414829659318637,0.5962258258317311,-1.9306484849625154,-0.058419064978723206,1.0586426337508141,-1.3508508439825886,0.0,0.0
0.7615230460921844,0.5571012767211901,-1.9562274555270487,-0.036823725053689624,1.079766996251679,-0.8499575362841989,0.0,0.0
0.781563126252505,0.5176547919500898,-1.9723242385550193,-0.014962449788572179,1.0930637632558722,-0.3452159319129975,0.0,0.0
0.8016032064128256,0.47807753642590256,-1.978862776209362,0.007006916170613192,1.0984682979592686,0.16039293878645433,0.0,0.0
0.8216432865731462,0.4385610267759831,-1.975825482495973,0.0289263970633254,1.0959740446356103,0.6637684343849313,0.0,0.0
0.8416833667334669,0.3992959125732597,-1.96325571013617,0.050639135248265,1.08563690924698,1.1616775082142512,0.0,0.0
0.8617234468937875,0.3604707065605904,-1.9412603006334657,0.07199071361554989,1.0675789183642443,1.6507567393027252,0.0,0.0
0.8817635270541082,0.3222704679595105,-1.9100119300539957,0.09283052876429083,1.0419907574370475,2.1275297698826785,0.0,0.0
0.9018036072144289,0.28487544866484965,-1.8697509647330408,0.11301318605661481,1.009132864616199,2.588440004217802,0.0,0.0
0.9218436873747494,0.2484597175304036,-1.8207865567223018,0.13239988309365563,0.9693348518520404,3.0298976667925688,0.0,0.0
0.9418837675350701,0.21318978277986692,-1.7634967375268342,0.15085974574839767,0.9229931327371022,3.4483395388420988,0.0,0.0
0.9619238476953907,0.17922323658636533,-1.6983273096750793,0.16827108070425417,0.8705667477928258,3.840298907335903,0.0,0.0
0.9819639278557114,0.1467074488265832,-1.625789387989106,0.18452251039282255,0.8125714844284195,4.2024825010315014,0.0,0.0
1.002004008016032,0.11577833872715115,-1.546455504971603,0.19951396007092667,0.7495724839052064,4.531850504664283,0.0,0.0
1.0220440881763526,0.08655925340814684,-1.4609542659502157,0.2131574722023817,0.682175606572752,4.8256952092504894,0.0,0.0
1.0420841683366733,0.059159981066722475,-1.369963617071218,0.22537782993330086,0.6110178865459573,5.081713565938705,0.0,0.0
1.062124248496994,0.033675923683502085,-1.2742028691610194,0.23611297886248642,0.5367574464592777,5.298068959259667,0.0,0.0
1.0821643286573146,0.010187449731511165,-1.174423697599546,0.24531424409009478,0.46006326138041853,5.473437978910819,0.0,0.0
1.1022044088176353,-0.011240558390351554,-1.071400406093136,0.2529463472536248,0.3816051581765002,5.607038874899363,0.0,0.0
1.122244488977956,-0.030558954259470108,-0.9659197934559277,0.2589872355072524,0.3020444126813797,5.698639684830208,0.0,0.0
1.1422845691382766,-0.04773437407380292,-0.8587709907166403,0.26342774076014547,0.22202526264465514,5.748545601402817,0.0,0.0
1.1623246492985972,-0.0627490868059121,-0.7507356366054586,0.2662710925925113,0.14216759161829173,5.757566815307187,0.0,0.0
1.1823647294589177,-0.07560066143561008,-0.6425787314848986,0.26753231181975673,0.06306096136227056,5.72696960634694,0.0,0.0
1.2024048096192383,-0.08630147054700162,-0.5350404555695769,0.26723751349140556,-0.014739916417558258,5.658414663057207,0.0,0.0
1.222444889779559,-0.09487805380340833,-0.42882916282033545,0.26542314814733736,-0.09071826720340884,5.5538873436955525,0.0,0.0
1.2424849699398797,-0.10137036731725882,-0.3246156756925248,0.26213520851416405,-0.1643969816586644,5.415624793833254,0.0,0.0
1.2625250501002003,-0.10583094566481467,-0.22302891737779268,0.2574284257492629,-0.23533913824505764,5.246044534991112,0.0,0.0
1.282565130260521,-0.10832400238831603,-0.12465283617506807,0.25136547517377245,-0.3031475287745213,5.047678438811755,0.0,0.0
1.3026052104208417,-0.10892449255076718,-0.030024508122557247,0.24401620658150025,-0.36746342961360934,4.82311504365257,0.0,0.0
1.3226452905811623,-0.10771715761926362,0.060366746575177654,0.23545690908218264,-0.42796487496588015,4.574952106609025,0.0,0.0
1.342685370741483,-0.1047955690434249,0.14607942879193642,0.22576961541855406,-0.4843646831814288,4.305760246377642,0.0,0.0
1.3627254509018036,-0.10026118274467986,0.2267193149372513,0.21504144611092882,-0.5364084653812622,4.018057617988365,0.0,0.0
1.3827655310621243,-0.09422241267077441,0.3019385036952727,0.20336398987841675,-0.5838728116256032,3.7142948270217917,0.0,0.0
1.4028056112224447,-0.08679372786108291,0.37143424048457485,0.1908327137303584,-0.6265638074029181,3.396848758519245,0.0,0.0
1.4228456913827654,-0.07809477430079474,0.4349476780144085,0.17754639400790884,-0.664315986122478,3.068023657734934,0.0,0.0
1.442885771543086,-0.0682495203327134,0.49226269840406667,0.16360655851097175,-0.6969917748468549,2.7300576311746916,0.0,0.0
1.4629258517034067,-0.05738542259844539,0.5432048867134008,0.14911692964249065,-0.7244814434240552,2.385132705133212,0.0,0.0
1.4829659318637274,-0.04563260839904633,0.587640709969953,0.13418285916873876,-0.7467035236875942,2.0353866516776287,0.0,0.0
1.503006012024048,-0.03312306996226123,0.625476921839255,0.11891074662372986,-0.7636056272504451,1.6829249400522748,0.0,0.0
1.5230460921843687,-0.019989866313813942,0.6566601824223643,0.10340743544280347,-0.7751655590463196,1.3298313712321614,0.0,0.0
1.5430861723446894,-0.006366329187881364,0.6811768562966289,0.08777958343736333,-0.7813926002720065,0.9781761879974091,0.0,0.0
1.56312625250501,0.00761472942276363,0.6990529305322497,0.07213300704612996,-0.7823288195616684,0.6300207102594597,0.0,0.0
1.5831663326653307,0.021821808991724,0.7103539784480185,0.056572001735512085,-0.7780502655308936,0.2874178173321412,0.0,0.0
1.6032064128256511,0.03612551068259916,0.7151850845437581,0.04119864378912666,-0.7686678973192713,-0.04759212102051624,0.0,0.0
1.6232464929859718,0.050399323510901615,0.7136906414151228,0.02611208134860855,-0.7543281220259055,-0.372989980367694,0.0,0.0
1.6432865731462925,0.06452040211897048,0.7060539304034427,0.011407824787116055,-0.7352128280746247,-0.6867911211651471,0.0,0.0
1.6633266533066131,0.07837033019853526,0.6924964039782391,-0.0028229518167894405,-0.7115388301952748,-0.9870627019355757,0.0,0.0
1.6833667334669338,0.09183586217732671,0.6732765989395728,-0.016494085278589445,-0.6835566730900002,-1.2719443896048888,0.0,0.0
1.7034068136272544,0.10480963467401286,0.6486886248343069,-0.029525060776795686,-0.651548774910312,-1.5396715757728636,0.0,0.0
1.723446893787575,0.11719083848802972,0.6190601907008432,-0.04184159930090389,-0.6158269262054104,-1.7886000361118666,0.0,0.0
1.7434869739478958,0.12888584157647803,0.5847501544224157,-0.053376183157921295,-0.57672919285087,-2.0172308535231727,0.0,0.0
1.7635270541082164,0.139808753605697,0.5461456014609485,-0.06406850917091139,-0.5346163006495049,-2.2242343745874456,0.0,0.0
1.783567134268537,0.14988192325228777,0.5036584823295382,-0.07386586123401219,-0.4898676031550399,-2.408471990910138,0.0,0.0
1.8036072144288577,0.15903636044322408,0.4577218595468149,-0.08272339626531926,-0.4428767515653531,-2.569014635416309,0.0,0.0
1.8236472945891782,0.16721207711752908,0.4087858337152506,-0.09060434017544843,-0.3940471955064584,-2.7051570557874833,0.0,0.0
1.8436873747494988,0.17435834178940404,0.3573132335937482,-0.09748009309400169,-0.34378764592766264,-2.81642716355863,0.0,0.0
1.8637274549098195,0.1804338451016579,0.30377516561269413,-0.10333024562196272,-0.2925076263980514,-2.9025900417082684,0.0,0.0
1.8837675350701402,0.18540677557229382,0.24864652353179578,-0.10814251017280321,-0.24061322754202488,-2.96364650399427,0.0,0.0
1.9038076152304608,0.18925480674390083,0.19240155858035035,-0.11191257341850708,-0.18850316228519332,-2.999826410474704,0.0,0.0
1.9238476953907815,0.1919649988357851,0.13550960459421366,-0.11464387738694763,-0.1365651984220274,-3.011577229718515,0.0,0.0
1.9438877755511021,0.19353361967491056,0.07843104195627312,-0.11634733781466176,-0.08517302138570637,-2.9995485758391487,0.0,0.0
1.9639278557114228,0.19396589106536796,0.02161356952287033,-0.11704100892862568,-0.03468355569819581,-2.964573619974435,0.0,0.0
1.9839679358717435,0.1932756677938186,-0.03451116357746766,-0.11674970392953062,0.01456524995475339,-2.907648370822932,0.0,0.0
2.004008016032064,0.19148505713464142,-0.08953053295885978,-0.11550458012388323,0.062256190282369284,-2.8299098354350454,0.0,0.0
2.024048096192385,0.18862398701578956,-0.14305350594259278,-0.11334269697306873,0.10809415754072499,-2.7326140155026297,0.0,0.0
2.0440881763527052,0.18472973096242754,-0.19471280266810162,-0.11030655438070641,0.1518071296181162,-2.617114578166367,0.0,0.0
2.064128256513026,0.1798463975986332,-0.2441666681897172,-0.10644361742013696,0.1931468480284727,-2.4848428803121574,0.0,0.0
2.0841683366733466,0.17402439192059282,-0.2911002839020177,-0.1018058325075513,0.23188924562928243,-2.3372897874724416,0.0,0.0
2.1042084168336674,0.1673198548486728,-0.3352268535960023,-0.09644913887337367,0.2678346817088817,-2.175989949786342,0.0,0.0
2.124248496993988,0.15979408663063813,-0.3762884109017328,-0.09043297791247164,0.30080804804510153,-2.0025075825250784,0.0,0.0
2.1442885771543083,0.1515129591289828,-0.4140563750827659,-0.08381980249549476,0.33065877084884376,-1.8184253922157263,0.0,0.0
2.164328657314629,0.14254632086520996,-0.4483319131886422,-0.07667458704278109,0.35726077263568345,-1.6253349150833036,0.0,0.0
2.1843687374749496,0.13296739822268056,-0.47894613212647097,-0.06906433900401261,0.38051240193842356,-1.4248287448614114,0.0,0.0
2.2044088176352705,0.1228521955598348,-0.505760133142288,-0.06105761201642916,0.4003363493791725,-1.2184940951442873,0.0,0.0
2.224448897795591,0.11227889655395831,-0.5286649502938243,-0.052724020982819864,0.416679551680465,-1.0079073438034127,0.0,0.0
2.244488977955912,0.10132726879823464,-0.5475813877861838,-0.04413375945703781,0.42951307628910246,-0.7946291143753133,0.0,0.0
2.2645290581162323,0.0900780735432372,-0.5624597627498719,-0.03535712006675852,0.43883196951396436,-0.5801994075283121,0.0,0.0
2.284569138276553,0.07861248252083688,-0.5732795511200158,-0.026464019235975113,0.44465504153917035,-0.36613309262477556,0.0,0.0
2.3046092184368736,0.06701150369990061,-0.5800489410468136,-0.017523527706477072,0.44702457647490207,-0.1539139888574111,0.0,0.0
2.3246492985971945,0.05535541840885144,-0.5828042645524582,-0.008603409499078032,0.44600591036995196,0.05501076936602731,0.0,0.0
2.344689378757515,0.04372323216732262,-0.5816093120764411,0.0002303280249107264,0.44168687619943786,0.2592375423843166,0.0,0.0
2.3647294589178354,0.03219214202840132,-0.576554506946065,0.008913869600253043,0.4341770787671158,0.4574136769783479,0.0,0.0
2.3847695390781563,0.020837023483472973,-0.5677559272464174,0.0173860092565242,0.42360698281355785,0.6482457006245106,0.0,0.0
2.4048096192384767,0.009729940226271409,-0.5553541628600782,0.025588545297171597,0.41012680203236984,0.8305080780847068,0.0,0.0
2.4248496993987976,-0.0010603197484291074,-0.5395129987350258,0.03346664898872306,0.39390518457757345,1.003052322122801,0.0,0.0
2.444889779559118,-0.011468678145856386,-0.5204179198713639,0.04096920296964354,0.37512769904602405,1.164816196090038,0.0,0.0
2.464929859719439,-0.02143416692188599,-0.4982744388014802,0.048049105635576586,0.3539951332966522,1.3148327088911416,0.0,0.0
2.4849699398797593,-0.03090029196469697,-0.4733062521405491,0.05466353816171905,0.33072162630712326,1.452238584364136,0.0,0.0
2.50501002004008,-0.039815356739676885,-0.4457532387489958,0.060774191363948946,0.30553266011149477,1.5762818883354741,0.0,0.0
2.5250501002004007,-0.04813274309599097,-0.4158693178157043,0.06634745025068849,0.278662944336977,1.6863285173594174,0.0,0.0
2.5450901803607215,-0.05581114690392218,-0.3839201903965603,0.07135453484457165,0.25035422969415805,1.7818672919732328,0.0,0.0
2.565130260521042,-0.06281476675033819,-0.3501809923208005,0.07577159662094364,0.2208530888186,1.8625134515511352,0.0,0.0
2.5851703406813624,-0.06911344454348967,-0.31493388965757385,0.07957977068248753,0.19040870307719474,1.928010413803723,0.0,0.0
2.6052104208416833,-0.07468275754228937,-0.27846564993998485,0.0827651845308825,0.15927069241974828,1.9782297350880464,0.0,0.0
2.6252505010020037,-0.07950406200192034,-0.2410652229815486,0.08531892497605865,0.12768702225880776,2.0131692829305874,0.0,0.0
2.6452905811623246,-0.08356448928969788,-0.20302136438887727,0.08723696531544223,0.0959020169691788,2.0329497044273563,0.0,0.0
2.665330661322645,-0.08685689594693713,-0.1646203328619626,0.08852005540038414,0.06415450424709578,2.037809338745561,0.0,0.0
2.685370741482966,-0.08937976973188339,-0.12614368924731278,0.08917357757297838,0.032676108629711806,2.0280977748347606,0.0,0.0
2.7054108216432864,-0.09113709415793253,-0.08786622130245758,0.08920737169961461,0.0016897063318117023,2.004268293840455,0.0,0.0
2.7254509018036073,-0.09213817442832485,-0.05005401351961617,0.08863553265110728,-0.028591952425366173,1.9668694579703991,0.0,0.0
2.7454909819639277,-0.09239742795713352,-0.012962676440433203,0.08747618359289681,-0.05796745291052367,1.9165361135116485,0.0,0.0
2.7655310621242486,-0.09193414285648727,0.023164255032312557,0.08575122836777632,-0.08624776125602425,1.8539800663245942,0.0,0.0
2.785571142284569,-0.09077220786678428,0.0580967494851494,0.08348608609693199,-0.11325711354221667,1.7799806655595687,0.0,0.0
2.8056112224448895,-0.08893981721994809,0.09161953234180892,0.08070941091418614,-0.13883375913729232,1.6953754211436503,0.0,0.0
2.8256513026052104,-0.0864691538989092,0.12353316605194438,0.07745279955033404,-0.16283056819260472,1.6010513307943925,0.0,0.0
2.845691382765531,-0.0833960544747141,0.15365497120975546,0.0737504889770185,-0.18511552866577774,1.497935606305379,0.0,0.0
2.8657314629258517,-0.07975965893987384,0.18181977674201275,0.06963904665228221,-0.20557211623681437,1.3869880169357078,0.0,0.0
2.885771543086172,-0.07560204833585013,0.20788053020118558,0.06515705502096283,-0.22409958156596904,1.269193060885146,0.0,0.0
2.905811623246493,-0.07096787305523547,0.23170876403073332,0.060344792131217066,-0.24061314448728835,1.1455527921392124,0.0,0.0
2.9258517034068134,-0.065903974463432,0.25319492959017337,0.05524390999838374,-0.2550441066416663,1.0170801246748697,0.0,0.0
2.9458917835671343,-0.06045900232097167,0.27224860712301663,0.04989711225046983,-0.26733988739569536,0.8847925437962169,0.0,0.0
2.9659318637274548,-0.05468303035246699,0.2887985984252343,0.044347832549456984,-0.2774639850506424,0.7497061611343675,0.0,0.0
2.9859719438877756,-0.048627172197441546,0.3027929077512722,0.03863991528293189,-0.2853958633262547,0.6128300418484415,0.0,0.0
3.006012024048096,-0.04234319989378149,0.31419861518300274,0.032817300054932566,-0.2911307613999662,0.47516072753067984,0.0,0.0
3.0260521042084165,-0.03588316698715268,0.3230016453314405,0.02692371156731858,-0.2946794243806992,0.3376768928793522,0.0,0.0
3.0460921843687374,-0.029299038322935844,0.3292064332108418,0.021002356558217323,-0.29606775045506284,0.20133408735107997,0.0,0.0
3.066132264529058,-0.0226423285553733,0.3328354883781272,0.015095629540235321,-0.2953363508991001,0.06705952681921001,0.0,0.0
3.0861723446893787,-0.01596375139606481,0.33392885796542443,0.009244829148317677,-0.29254001959588216,-0.06425322021947041,0.0,0.0
3.106212424849699,-0.009312881667771077,0.3325434864146867,0.0034898870365306393,-0.2877471055893519,-0.19174880617759393,0.0,0.0
3.12625250501002,-0.0027378319393621484,0.3287524864204464,-0.002130889127601829,-0.2810388082066234,-0.314615925637902,0.0,0.0
3.1462925851703405,0.0037150540000759503,0.32264429697190494,-0.007581056273533164,-0.27250835729656675,-0.43209174154398766,0.0,0.0
