time,x,x_dot,theta,theta_dot,u,x_ref,theta_ref
0.0,0.2925226277900226,0.005698229034040561,0.10546009592077044,0.062338553401921404,5.9791082777556,0.0,0.0
0.02004008016032064,0.2949379345011833,0.12076533555803445,0.1038947464903463,-0.07826747152120647,5.519731701180048,0.0,0.0
0.04008016032064128,0.2994759611536444,0.2269013326230555,0.09977388623693306,-0.20604301267066227,5.04005979518221,0.0,0.0
0.06012024048096192,0.30595101824342574,0.3237528544890689,0.09334906798029632,-0.3212409128318372,4.539294460176891,0.0,0.0
0.08016032064128256,0.3141699040003071,0.41094428784406783,0.08486927535165512,-0.4239896314320605,4.0219231649032645,0.0,0.0
0.1002004008016032,0.3239335246798015,0.488181033974721,0.0745802833713211,-0.5144495990167012,3.491948081972596,0.0,0.0
0.12024048096192384,0.3350383365275856,0.5552405923892022,0.06272420211942191,-0.5928040625949591,2.9530532585581257,0.0,0.0
0.1402805611222445,0.3472776786124285,0.6119671042421442,0.04953907928809349,-0.6592561415664209,2.408689364276418,0.0,0.0
0.16032064128256512,0.36044303144571566,0.6582676416643585,0.03525849970987697,-0.7140289789108263,1.8621610167271179,0.0,0.0
0.18036072144288576,0.3743252355613821,0.6941102057833206,0.020111130279694016,-0.7573684715091477,1.3167049726727758,0.0,0.0
0.2004008016032064,0.388715699276463,0.7195231857540443,0.004320173339254399,-0.7895478470219809,0.7755540638113249,0.0,0.0
0.22044088176352705,0.40340761823312704,0.7345959478332027,-0.011897293135144232,-0.8108733237199315,0.24198338203133485,0.0,0.0
0.24048096192384769,0.4181972216586256,0.7394801712749283,-0.028331095166407232,-0.8216901015631499,-0.2806634087375387,0.0,0.0
0.2605210420841683,0.4328850521022542,0.7343915221814294,-0.04477885481868188,-0.8223879826137322,-0.7889685340277153,0.0,0.0
0.280561122244489,0.44727727719514293,0.7196112546444358,-0.061046974876978626,-0.8134060029148373,-1.279455125527536,0.0,0.0
0.3006012024048096,0.461187024158997,0.695487348192702,-0.07695168630193809,-0.7952355712479732,-1.748621526179623,0.0,0.0
0.32064128256513025,0.4744357207507906,0.6624348295896807,-0.09232012121822046,-0.7684217458141185,-2.192992618902912,0.0,0.0
0.3406813627254509,0.48685442041779065,0.6209349833500022,-0.10699136980575429,-0.7335624293766915,-2.6091849702435272,0.0,0.0
0.3607214428857715,0.49828508495323265,0.5715332267721007,-0.12081747815156842,-0.6913054172907064,-2.993981721164093,0.0,0.0
0.3807615230460922,0.5085817951373569,0.514835509206211,-0.133664345782255,-0.6423433815343297,-3.3444124403394278,0.0,0.0
0.4008016032064128,0.5176118589046044,0.4515031883623731,-0.14541248595195658,-0.5874070084850785,-3.65783266400487,0.0,0.0
0.42084168336673344,0.5252567875907517,0.3822464343073624,-0.15595761837417385,-0.5272566211108636,-3.9319976735452835,0.0,0.0
0.4408817635270541,0.5314131137663236,0.30781630877859556,-0.16521107240356406,-0.46267270146951023,-4.165125294974526,0.0,0.0
0.4609218436873747,0.5359930289014725,0.22899575675744627,-0.17309998805601765,-0.39444578262267893,-4.355943194148906,0.0,0.0
0.48096192384769537,0.5389248253308649,0.14658982146962035,-0.1795673120132901,-0.323366197863622,-4.503717280335941,0.0,0.0
0.501002004008016,0.5401531342506068,0.06141544598709439,-0.18457159519779703,-0.2502141592253464,-4.608259335572173,0.0,0.0
0.5210420841683366,0.539638959226414,-0.02570875120963967,-0.1880866069714518,-0.17575058868273807,-4.669913702937465,0.0,0.0
0.5410821643286573,0.5373595123088919,-0.11397234587610884,-0.1901007879515972,-0.10070904900727118,-4.689524588893916,0.0,0.0
0.561122244488978,0.5333078667365956,-0.20258227861481432,-0.19061656843362343,-0.025789024101310634,-4.668387048945297,0.0,0.0
0.5811623246492986,0.5274924458452044,-0.29077104456956243,-0.18964958223294284,0.048349310034028925,-4.6081858485377865,0.0,0.0
0.6012024048096192,0.519936371824216,-0.37780370104941946,-0.18722780637949712,0.12108879267228653,-4.510927010757178,0.0,0.0
0.6212424849699398,0.5106767001873824,-0.4629835818416802,-0.18339065567975382,0.19185753498716507,-4.3788669476378415,0.0,0.0
0.6412825651302605,0.49976356625740703,-0.5456566964987696,-0.1781880580305604,0.26012988245967145,-4.214443677415778,0.0,0.0
0.6613226452905812,0.48725926878578396,-0.6252148735811548,-0.17167953196407829,0.32542630332410616,-4.020213867955627,0.0,0.0
0.6813627254509018,0.4732373133382046,-0.7010977723789654,-0.16393328271542643,0.38731246243259343,-3.7987984611075656,0.0,0.0
0.7014028056112224,0.45778143465150756,-0.7727939343348526,-0.15502532762540874,0.44539775450088437,-3.552838568058525,0.0,0.0
0.721442885771543,0.44098461320822463,-0.8398410721641465,-0.14503865636458366,0.49933356304125476,-3.284962304345431,0.0,0.0
0.7414829659318637,0.4229480971560248,-0.9018258026099908,-0.13406242666041168,0.5488114852085989,-2.9977623424789557,0.0,0.0
0.7615230460921844,0.40378043674588837,-0.958383020506822,-0.12219119220313919,0.5935617228636244,-2.693783250084175,0.0,0.0
0.781563126252505,0.383596534929132,-1.0091950908378182,-0.10952415638070696,0.6333517911216112,-2.3755171686940066,0.0,0.0
0.8016032064128256,0.36251671481904174,-1.0539910055045114,-0.09616444354177495,0.6679856419466008,-2.0454060651431365,0.0,0.0
0.8216432865731462,0.34066580249587525,-1.0925456161583242,-0.08221837862391246,0.6973032458931242,-1.7058486310115522,0.0,0.0
0.8416833667334669,0.3181722221594133,-1.1246790168230978,-0.06779476615969,0.721180623211123,-1.3592098863199045,0.0,0.0
0.8617234468937875,0.29516709990401535,-1.1502561127698996,-0.05300416078083113,0.7395302689429436,-1.0078316319803402,0.0,0.0
0.8817635270541082,0.27178337235912153,-1.1691863772446918,-0.03795812323008327,0.7523018775373931,-0.6540420645085031,0.0,0.0
0.9018036072144289,0.24815489702432358,-1.1814237667398981,-0.022768458379239243,0.7594832425422012,-0.30016309501994815,0.0,0.0
0.9218436873747494,0.22441556223101763,-1.1869667396652979,-0.007546434633866133,0.7611011872686555,0.05148581465679941,0.0,0.0
0.9418837675350701,0.20069839616566115,-1.1858583032678234,0.007598012837125448,0.757222373549579,0.39858818521754985,0.0,0.0
0.9619238476953907,0.17713467616689146,-1.1781859999384838,0.022557089594333356,0.7479538378603954,0.7388359886600833,0.0,0.0
0.9819639278557114,0.1538530414302304,-1.1640817368330527,0.03722595192538408,0.7334431165525362,1.0699402878575475,0.0,0.0
1.002004008016032,0.13097861419028103,-1.1437213619974687,0.051503508796708564,0.7138778435662242,1.3896469494322943,0.0,0.0
1.0220440881763526,0.1086321362764141,-1.117323895693347,0.065293203457004,0.689484733014772,1.6957570078817028,0.0,0.0
1.0420841683366733,0.08692912953802175,-1.0851503369196178,0.07850376132314167,0.6605278933068836,1.9861509537777517,0.0,0.0
1.062124248496994,0.06597908990641012,-1.0475019815805813,0.09104989045482793,0.6273064565843132,2.258815946754644,0.0,0.0
1.0821643286573146,0.04588472571629481,-1.0047182095057654,0.10285292134884368,0.5901515447007871,2.511874729358932,0.0,0.0
1.1022044088176353,0.02674125128563262,-0.9571737215331095,0.11384137391630123,0.5494226283728773,2.7436148565932936,0.0,0.0
1.122244488977956,0.008635746608266087,-0.9052752338683266,0.12395144126363233,0.5055033673665558,2.9525167727735133,0.0,0.0
1.1422845691382766,-0.008353406661727968,-0.8494576634997028,0.13312738216174114,0.4587970449054399,3.1372792744729496,0.0,0.0
1.1623246492985972,-0.024157003941950337,-0.7901798640111184,0.14132181671395733,0.4097217276108095,3.296841002711826,0.0,0.0
1.1823647294589177,-0.038715403823470246,-0.7279199940759954,0.14849592256238067,0.3587052924211668,3.4303968085857615,0.0,0.0
1.2024048096192383,-0.051978816216881774,-0.6631706196705763,0.15461953183859647,0.3061804638107896,3.5374081243301454,0.0,0.0
1.222444889779559,-0.06390748950208822,-0.5964336642603223,0.15967113180773163,0.2525799984567572,3.6176068265986165,0.0,0.0
1.2424849699398797,-0.07447179605993451,-0.5282153278923147,0.16363777462778945,0.19833214100289162,3.6709924721929164,0.0,0.0
1.2625250501002003,-0.08365221797528823,-0.4590210957676861,0.16651490372558958,0.1438564548900067,3.6978231844346903,0.0,0.0
1.282565130260521,-0.09143923696640632,-0.38935094955590455,0.16830610588350717,0.0895601078958792,3.6986008353105824,0.0,0.0
1.3026052104208417,-0.0978331345890686,-0.3196948811331142,0.16902279918063998,0.03583466485664105,3.6740514720128155,0.0,0.0
1.3226452905811623,-0.10284371038523639,-0.25052878980838944,0.16868386741994798,-0.016946588034600307,3.625102151972965,0.0,0.0
1.342685370741483,-0.1064899268267319,-0.18231082207477567,0.16731525161957608,-0.06843079001859459,3.5528554639481245,0.0,0.0
1.3627254509018036,-0.10879949061336312,-0.11547818933156115,0.16494950860699434,-0.11828715062908655,3.4585630221085766,0.0,0.0
1.3827655310621243,-0.10980838012779273,-0.050444475721480336,0.161625345812059,-0.16620813974676654,3.3435991345097795,0.0,0.0
1.4028056112224447,-0.10956032866527828,0.01240257312572314,0.15738714011269056,-0.21191028496842212,3.2094356845645717,0.0,0.0
1.4228456913827654,-0.10810627251072899,0.07270280772746456,0.152284447158021,-0.2551346477334781,3.057619047384481,0.0,0.0
1.442885771543086,-0.10550377211182746,0.1301250199450764,0.1463715060930256,-0.2956470532497695,2.889749705614218,0.0,0.0
1.4629258517034067,-0.1018164135531426,0.18436792793424334,0.13970674309181505,-0.333238150060528,2.7074643541399084,0.0,0.0
1.4829659318637274,-0.09711319660810748,0.2351608472517555,0.13235227602732536,-0.36772335322448435,2.5124219074150016,0.0,0.0
1.503006012024048,-0.09146791419454312,0.2822641206782183,0.12437342096444275,-0.39894275314413014,2.3062915862695936,0.0,0.0
1.5230460921843687,-0.08495852733926383,0.3254693427639641,0.11583820076127735,-0.42676101015826995,2.090743967998284,0.0,0.0
1.5430861723446894,-0.07766653870710646,0.3645994316078681,0.10681685527392903,-0.4510672743674156,1.86744422228143,0.0,0.0
1.56312625250501,-0.06967636700997974,0.3995085848563359,0.0973813523791664,-0.47177514473813154,1.6380469667251876,0.0,0.0
1.5831663326653307,-0.0610747240938553,0.430082145806222,0.08760489907973576,-0.488822664971532,1.4041924293551455,0.0,0.0
1.6032064128256511,-0.051949996101524086,0.45623639961656093,0.07756145214254836,-0.5021723468593701,1.1675030637965667,0.0,0.0
1.6232464929859718,-0.04239163003251662,0.4779183034503732,0.06732522831378104,-0.5118111914383657,0.9295809059499935,0.0,0.0
1.6432865731462925,-0.0324895268187709,0.4951051606872857,0.05697021445924985,-0.5177506927265597,0.6920035064748207,0.0,0.0
1.6633266533066131,-0.02233344265910765,0.5078042079831627,0.0465696793964852,-0.5200267531382324,0.45632031407060414,0.0,0.0
1.6833667334669338,-0.012012400229009708,0.516052121504897,0.03619568935026484,-0.5186995023110181,0.22404760225799736,0.0,0.0
1.7034068136272544,-0.0016141119779696147,0.5199144125520047,0.025918630067907865,-0.5138529641178489,-0.003337584263244514,0.0,0.0
1.723446893787575,0.008775581885020388,0.5194846931495001,0.015806739289534376,-0.5055945389186745,-0.22440462663841912,0.0,0.0
1.7434869739478958,0.019073257686381913,0.5148837900680763,0.0059256538640717026,-0.4940542712731336,-0.43777762553051225,0.0,0.0
1.7635270541082164,0.029198431438073276,0.5062586875845683,-0.0036620237687767284,-0.47938388164242157,-0.6421446464231385,0.0,0.0
1.783567134268537,0.039074057096242995,0.49378128290848605,-0.01289713477702182,-0.4617555504122546,-0.8362676841500686,0.0,0.0
1.8036072144288577,0.04862699596240771,0.47764694330823554,-0.021724343841412305,-0.4413604532195243,-1.0189930421772577,0.0,0.0
1.8236472945891782,0.05778845316720945,0.45807286024008714,-0.03009248498907522,-0.4184070573831458,-1.1892617689481058,0.0,0.0
1.8436873747494988,0.06649437722378518,0.4352962028287863,-0.03795486898039627,-0.3931191995660523,-1.346119762102269,0.0,0.0
1.8637274549098195,0.074685818832772,0.4095720804493414,-0.04526954846098752,-0.3657339740295626,-1.4887271433298341,0.0,0.0
1.8837675350701402,0.08230924546235566,0.38117133147918286,-0.05199953783054876,-0.3364994684780621,-1.6163665224879,0.0,0.0
1.9038076152304608,0.08931680870438945,0.35037816210168965,-0.058112985633519264,-0.30567239014852526,-1.7284498084189321,0.0,0.0
1.9238476953907815,0.09566656200343611,0.3174876649523328,-0.06358329819819919,-0.273515628233996,-1.8245232831498461,0.0,0.0
1.9438877755511021,0.10132262704487824,0.28280325207210644,-0.06838921419521897,-0.2402957998509887,-1.9042707318474492,0.0,0.0
1.9639278557114228,0.10625530784117976,0.2466340398150758,-0.07251483070771289,-0.20628082562469593,-1.967514507906931,0.0,0.0
1.9839679358717435,0.11044115233900506,0.20929222489126506,-0.07594958226302946,-0.17173757776582882,-2.0142145047793436,0.0,0.0
2.004008016032064,0.11386296215034042,0.17109049056676756,-0.07868817503423628,-0.1369296385603409,-2.0444650972621305,0.0,0.0
2.024048096192385,0.11650975175544727,0.13233948025534273,-0.08073047905201251,-0.10211520088881149,-2.0584901987804582,0.0,0.0
2.0440881763527052,0.1183766592052742,0.09334537249134628,-0.08208138175592995,-0.06754513519587188,-2.056636652270871,0.0,0.0
2.064128256513026,0.11946481094194539,0.05440758683355943,-0.08275060655044095,-0.03346123972554988,-2.039366226491635,0.0,0.0
2.0841683366733466,0.11978114384074172,0.01581664493981666,-0.08275250021640759,-9.468329833229455e-05,-2.007246524246633,0.0,0.0
2.1042084168336674,0.11933818794551297,-0.02214779476143733,-0.08210579307365513,0.03233535713762305,-1.960941123303689,0.0,0.0
2.124248496993988,0.11815381361903846,-0.059218716323725856,-0.08083333571097089,0.0636228681342125,-1.901199265371141,0.0,0.0
2.1442885771543083,0.11625094696483418,-0.09514333271021376,-0.07896181591987944,0.093575989554572,-1.8288453857057354,0.0,0.0
2.164328657314629,0.11365725740766382,-0.12968447785851817,-0.07652145921355875,0.12201783531603418,-1.7447686239461377,0.0,0.0
2.1843687374749496,0.11040482130656112,-0.1626218050551348,-0.07354571607713534,0.14878715682117102,-1.6499132868591875,0.0,0.0
2.2044088176352705,0.10652976509277279,-0.19375281068941677,-0.07007093839655629,0.17373888402895266,-1.5452683021132303,0.0,0.0
2.224448897795591,0.10207189181844888,-0.22289366371619554,-0.066136048051181,0.19674451726876405,-1.4318589225478289,0.0,0.0
2.244488977955912,0.0970742941330733,-0.24987988426877936,-0.061782199382011925,0.21769243345845413,-1.310738066846964,0.0,0.0
2.2645290581162323,0.0915829568627392,-0.2745668635167042,-0.05705243756727768,0.23648809073671231,-1.1829784875048963,0.0,0.0
2.284569138276553,0.08564635206673629,-0.29683023980014567,-0.0519913546198359,0.2530541473720891,-1.049665541655515,0.0,0.0
2.3046092184368736,0.07931502923664453,-0.3165661415045882,-0.046644744574133215,0.26733050228513433,-0.911890466715819,0.0,0.0
2.3246492985971945,0.07264120313403451,-0.33369130513050105,-0.04105925936402398,0.2792742605054618,-0.770744082947586,0.0,0.0
2.344689378757515,0.06567834162428432,-0.3481430754875092,-0.03528206687934457,0.2888596242339705,-0.6273108328852294,0.0,0.0
2.3647294589178354,0.0584807557590385,-0.359879293262291,-0.029360512722018006,0.2960777078663281,-0.48266305984594426,0.0,0.0
2.3847695390781563,0.051103194290071985,-0.36887807344832596,-0.02334178725455345,0.30093627337322776,-0.3378554348690272,0.0,0.0
2.4048096192384767,0.04360044475889983,-0.375137476558608,-0.017272599632041596,0.3034593811255927,-0.19391946979958172,0.0,0.0
2.4248496993987976,0.03602694328756108,-0.3786750735669375,-0.011198860610574995,0.3036869510733301,-0.051857945933893895,0.0,0.0
2.444889779559118,0.028436395238460154,-0.3795274024550462,-0.005165376090790104,0.30167422598924454,0.08736012144948538,0.0,0.0
2.464929859719439,0.020881408706323094,-0.377749326606853,0.0007844468772803788,0.29749114840352414,0.22280551604688714,0.0,0.0
2.4849699398797593,0.013413143193855469,-0.3734132756233813,0.006608879272143594,0.29122161974316074,0.35359388173016876,0.0,0.0
2.50501002004008,0.0060809754385709085,-0.366608387764228,0.012268132653620844,0.2829626690738625,0.47889115165542984,0.0,0.0
2.5250501002004007,-0.001067815506590561,-0.3574395472580735,0.017724603069143488,0.27282352077613214,0.5979187453359818,0.0,0.0
2.5450901803607215,-0.007988341937538173,-0.3460263215473806,0.022943094441901107,0.26092456863788094,0.7099585315006867,0.0,0.0
2.565130260521042,-0.014638378010215673,-0.332501803633875,0.02789101972329913,0.24739626406990103,0.814357459407045,0.0,0.0
2.5851703406813624,-0.020978605341990943,-0.3170113665887635,0.03253857829712921,0.23237792869150384,0.9105317562351438,0.0,0.0
2.6052104208416833,-0.026972832126584294,-0.29971133922966753,0.03685890837284219,0.216016503785649,0.9979705894532094,0.0,0.0
2.6252505010020037,-0.03258818440315499,-0.28076761382853466,0.040828213392062745,0.19846525096102793,1.0762391003454135,0.0,0.0
2.6452905811623246,-0.03779526837102625,-0.2603541983935633,0.04442586178589307,0.17988241969151617,1.144980727740921,0.0,0.0
2.665330661322645,-0.04256830292037762,-0.23865172746756824,0.04763445974935225,0.160429898172959,1.203918758473572,0.0,0.0
2.685370741482966,-0.04688522184894708,-0.2158459464284731,0.05043989703180222,0.1402718641224985,1.252857062140429,0.0,0.0
2.7054108216432864,-0.050727745547139734,-0.19212618490963268,0.052831366066996704,0.11957345175972418,1.2916799909489218,0.0,0.0
2.7254509018036073,-0.0540814222501256,-0.16768383514929328,0.05480135507296416,0.09849945029837266,1.3203514494431543,0.0,0.0
2.7454909819639277,-0.056935639266649914,-0.14271085082621587,0.056345616031272076,0.07721304791539599,1.33891316223363,0.0,0.0
2.7655310621242486,-0.05928360489194319,-0.11739828126466376,0.057463108700192056,0.05587463344599898,1.3474821892231572,0.0,0.0
2.785571142284569,-0.061122301988770195,-0.09193485484135042,0.05815592202192989,0.03464066608689173,1.3462477560791208,0.0,0.0
2.8056112224448895,-0.06245241447004087,-0.066505624063534,0.05842917444773616,0.013662621290313846,1.3354674820005452,0.0,0.0
2.8256513026052104,-0.06327822813381381,-0.04129068318864717,0.05829089482596139,-0.006913981088738384,1.3154630966371068,0.0,0.0
2.845691382765531,-0.06360750748394554,-0.016463967506586484,0.05775188557863533,-0.026950462366303128,1.2866157430972305,0.0,0.0
2.8657314629258517,-0.06345135031581046,0.00780785840675394,0.056825569935407466,-0.0463157821613933,1.249360868127775,0.0,0.0
2.885771543086172,-0.06282402199441237,0.03136641606990474,0.055527825060826666,-0.06488724372903998,1.204183418067711,0.0,0.0
2.905811623246493,-0.061742771222334354,0.05406253860390051,0.0538768025870734,-0.08255112368766344,1.1516117349382728,0.0,0.0
2.9258517034068134,-0.06022762959424811,0.07575708140431221,0.051892738706669835,-0.09920319402017823,1.0922126790700633,0.0,0.0
2.9458917835671343,-0.058301196751358204,0.09632164214449514,0.04959775518070188,-0.11474917629839781,1.0265860437727234,0.0,0.0
2.9659318637274548,-0.05598841322322401,0.1156391764067097,0.04701565297673134,-0.12910511019852702,0.955359184915892,0.0,0.0
2.9859719438877756,-0.05331632296103459,0.13360451310947102,0.044171700099162506,-0.14219764387844167,0.8791817517503011,0.0,0.0
3.006012024048096,-0.05031382752963268,0.15012477157009552,0.04109241511495727,-0.1539642492102617,0.7987205348271719,0.0,0.0
3.0260521042084165,-0.047011433884439596,0.1651196822596542,0.03780534782991474,-0.16435336425212663,0.7146544596040023,0.0,0.0
3.0460921843687374,-0.04344099760848807,0.17852181379757634,0.034338858523691264,-0.17332446531117374,0.6276697316451785,0.0,0.0
3.066132264529058,-0.03963546343238209,0.19027670880529882,0.030721897114272888,-0.18084807047091872,0.5384551325219497,0.0,0.0
3.0861723446893787,-0.035628604808346766,0.2003429312017663,0.026983783594510626,-0.18690567598811306,0.44769746590655846,0.0,0.0
3.106212424849699,-0.031454764258012094,0.20869202751673363,0.023153991060515522,-0.19148962669975517,0.3560771502076599,0.0,0.0
3.12625250501002,-0.027148596163037417,0.21530840474873386,0.019261932632687984,-0.19460292139137694,0.2642639553373362,0.0,0.0
