time,x,x_dot,theta,theta_dot,u,x_ref,theta_ref
0.0,0.6091970508036426,-0.09124493527220068,-0.19198816525031326,0.06784251650220602,-2.777418809342152,0.0,0.0
0.02004008016032064,0.6063447375748292,-0.14261566144067064,-0.19024072071102893,0.08737222696421637,-2.9542315603759874,0.0,0.0
0.04008016032064128,0.602395669444652,-0.1974534065088638,-0.18799001884492614,0.11253509330513911,-3.0263345970938347,0.0,0.0
0.06012024048096192,0.5973210991423458,-0.25372851511530703,-0.18518003922581033,0.14049898095578975,-3.07216488452975,0.0,0.0
0.08016032064128256,0.591102329787077,-0.3109384677634376,-0.1817661280063699,0.17069556097202174,-3.0917842701872678,0.0,0.0
0.1002004008016032,0.5837306783995662,-0.3685825693755394,-0.17771469041014076,0.20257187981145763,-3.08558480799288,0.0,0.0
0.12024048096192384,0.5752073155148463,-0.4261681442359917,-0.17300277773399222,0.23559563380742723,-3.054194960470834,0.0,0.0
0.1402805611222445,0.5655430173135352,-0.4832149100655541,-0.16761761967338004,0.26925790303060926,-2.9984549894760613,0.0,0.0
0.16032064128256512,0.5547578396120375,-0.5392588850748841,-0.16155611166679257,0.3030754003293731,-2.919390662614988,0.0,0.0
0.18036072144288576,0.542880723574982,-0.5938558018527788,-0.1548242666525558,0.3365922507118378,-2.818186548789629,0.0,0.0
0.2004008016032064,0.5299490430646876,-0.6465840255147186,-0.14743663986729247,0.36938133926316685,-2.6961599695387455,0.0,0.0
0.22044088176352705,0.5160081032082281,-0.6970469928229736,-0.13941573424576972,0.40104528107613713,-2.5547365128190025,0.0,0.0
0.24048096192384769,0.5011105991078662,-0.744875205018096,-0.13079139271162346,0.43121707670731296,-2.3954278063306607,0.0,0.0
0.2605210420841683,0.4853160427273838,-0.7897278190241172,-0.12160018228958036,0.4595605211021551,-2.2198120124104186,0.0,0.0
0.280561122244489,0.4686901649451696,-0.8312938891107116,-0.11188477363118396,0.48577043291982025,-2.0295171984091835,0.0,0.0
0.3006012024048096,0.45130429869166416,-0.8692933126752717,-0.10169331836539251,0.5095727632895724,-1.8262080500756834,0.0,0.0
0.32064128256513025,0.43323474785709737,-0.9034775417283387,-0.09107882543066731,0.5307246467362602,-1.6115744033625041,0.0,0.0
0.3406813627254509,0.41456214603646724,-0.9336300910315074,-0.08009853731653543,0.5490144057065938,-1.3873232798552997,0.0,0.0
0.3607214428857715,0.3953708079152543,-0.959566906060646,-0.0688133060231766,0.5642615646679413,-1.1551721714647263,0.0,0.0
0.3807615230460922,0.37574807572067315,-0.9811366097290581,-0.05728696876478334,0.5763168629196632,-0.9168438852685634,0.0,0.0
0.4008016032064128,0.3557836626631653,-0.9982206528753914,-0.045585723457388046,0.5850622653697648,-0.6740622121043093,0.0,0.0
0.42084168336673344,0.33556899507337284,-1.010733379489623,-0.0337775044036133,0.5904109526887372,-0.42854785262839995,0.0,0.0
0.4408817635270541,0.31519655492898346,-1.01862200721947,-0.021931359174713744,0.5923072614449779,-0.18201399647718786,0.0,0.0
0.4609218436873747,0.2947592246734721,-1.0218665127755682,-0.010116828481986528,0.5907265346363608,0.06383844057268628,0.0,0.0
0.48096192384769537,0.27434963641312315,-1.0204794130174484,0.001596668556833214,0.5856748519409871,0.3073272862304174,0.0,0.0
0.501002004008016,0.2540595282714056,-1.0145054070858766,0.013140440131693371,0.5771885787430079,0.546796298593357,0.0,0.0
0.5210420841683366,0.23397911096094015,-1.004020865523273,0.024447114365191334,0.5653337116748981,0.7806240527387928,0.0,0.0
0.5410821643286573,0.21419644827258777,-0.9891331344176186,0.03545121394938219,0.5502049792095429,1.0072342039584046,0.0,0.0
0.561122244488978,0.19479685567130378,-0.9699796300641989,0.04608970742473298,0.5319246737675393,1.2251070537531157,0.0,0.0
0.5811623246492986,0.17586232163020205,-0.9467267020550867,0.056302531442842314,0.5106412009054668,1.432792178534742,0.0,0.0
0.6012024048096192,0.1574709566680156,-0.9195682481093217,0.06603307830355973,0.48652734303587053,1.6289217792794624,0.0,0.0
0.6212424849699398,0.13969647524730464,-0.8887240710355484,0.07522864325402089,0.459778247523058,1.8122243281705115,0.0,0.0
0.6412825651302605,0.12260771571605893,-0.8544379765622855,0.0838408264761199,0.4306091611049506,1.9815380304945658,0.0,0.0
0.6613226452905812,0.10626820331809336,-0.8169756198982783,0.0918258853494784,0.39925294366792524,2.1358235907550487,0.0,0.0
0.6813627254509018,0.09073576095279538,-0.7766221182648989,0.09914503342549057,0.36595740380060804,2.274175773559115,0.0,0.0
0.7014028056112224,0.07606217183836904,-0.7336794557213172,0.10576468354068848,0.3309825057598958,2.395833283036442,0.0,0.0
0.721442885771543,0.06229289754165889,-0.6884637148355073,0.11165663358347944,0.2945975021395477,2.5001865478543897,0.0,0.0
0.7414829659318637,0.04946685400889615,-0.6413021766381369,0.11679819455252155,0.25707804845210575,2.586783088545899,0.0,0.0
0.7615230460921844,0.037616247300705466,-0.5925303354095344,0.1211722616526795,0.2187033550078973,2.6553302539439225,0.0,0.0
0.781563126252505,0.02676646974304884,-0.5424888778828313,0.1247673302138578,0.17975342805891503,2.705695236318621,0.0,0.0
0.8016032064128256,0.016936056198458928,-0.49152067722949555,0.1275774591434944,0.14050644648182908,2.737902401441433,0.0,0.0
0.8216432865731462,0.008136699184176234,-0.4399678507141347,0.12960218539836424,0.10123631274349291,2.7521280910674704,0.0,0.0
0.8416833667334669,0.00037332065799035915,-0.3881689263092937,0.1308463935595321,0.062210408058393146,2.7486931625532973,0.0,0.0
0.8617234468937875,-0.006355802504815491,-0.3364561581402925,0.13132014500156114,0.023687572101452815,2.728053616295055,0.0,0.0
0.8817635270541082,-0.01205886298073666,-0.28515302379605845,0.13103847136125935,-0.014083682015089756,2.690789721234401,0.0,0.0
0.9018036072144289,-0.01675030155647076,-0.23457192878670505,0.1300211370416436,-0.050866715980788346,2.6375940792413823,0.0,0.0
0.9218436873747494,-0.020450544262075685,-0.18501213528024618,0.12829237535286042,-0.08643808443915779,2.5692590707651064,0.0,0.0
0.9418837675350701,-0.023185702746614228,-0.13675792422692706,0.12588060262106754,-0.12058863658964464,2.486664099121418,0.0,0.0
0.9619238476953907,-0.024987242597548007,-0.09007699254668905,0.12281811422199723,-0.15312441995351514,2.3907630035429865,0.0,0.0
0.9819639278557114,-0.025891624209432355,-0.04521908059421743,0.11914076605437707,-0.1838674083810079,2.282571865720874,0.0,0.0
1.002004008016032,-0.02593992063926129,-0.002414821491446728,0.11488764454360348,-0.21265607553867974,2.1631579952692066,0.0,0.0
1.0220440881763526,-0.025177416425767825,0.03812521067467324,0.11010072752473633,-0.23934585094335734,2.033628668284716,0.0,0.0
1.0420841683366733,-0.023653191458526988,0.07621124836204182,0.10482453856254252,-0.2638094481096907,1.8951221367660884,0.0,0.0
1.062124248496994,-0.021419693120794593,0.11167491688661982,0.0991057961218742,-0.28593712203341576,1.748798757650469,0.0,0.0
1.0821643286573146,-0.018532299915087855,0.14436966028533696,0.09299305918561293,-0.30563684681306347,1.5958332339378336,0.0,0.0
1.1022044088176353,-0.015048879384804153,0.1741710265141851,0.08653637058577839,-0.32283442999172735,1.437407655756525,0.0,0.0
1.122244488977956,-0.011029342874616963,0.20097682550935955,0.07978689919866895,-0.33747356935547157,1.2747051938786074,0.0,0.0
1.1422845691382766,-0.00653519946033385,0.22470717071415566,0.07279658213946062,-0.3495158529604163,1.1089043096906608,0.0,0.0
1.1623246492985972,-0.0016291112185681895,0.24530441208828302,0.06561776814881481,-0.3589406995322903,0.9411733226042337,0.0,0.0
1.1823647294589177,0.003625548095099988,0.26273296568340887,0.05830286348982939,-0.36574523294927125,0.7726651739427932,0.0,0.0
1.2024048096192383,0.009165128934761655,0.2769790419830834,0.05090398185529937,-0.36994408172650095,0.6045122669442388,0.0,0.0
1.222444889779559,0.014926134398301271,0.28805027317698084,0.043472599988790245,-0.37156909332545623,0.4378211479422093,0.0,0.0
1.2424849699398797,0.02084563910470106,0.2959752353199894,0.03605922100892892,-0.37066894899306596,0.27366764087143497,0.0,0.0
1.2625250501002003,0.026861696577745356,0.3008028736522149,0.02871304729754052,-0.36730868556942026,0.11309075572840865,0.0,0.0
1.282565130260521,0.0329137327173614,0.30260180698080213,0.021481665606767987,-0.36156908453862646,-0.042912541706954244,0.0,0.0
1.3026052104208417,0.038942923279258586,0.3014595280948594,0.014410746566227556,-0.35354595202702155,-0.19339316876896703,0.0,0.0
1.3226452905811623,0.04489255305578911,0.2974814888265264,0.007543761110711717,-0.34334927277579197,-0.33745573005374385,0.0,0.0
1.342685370741483,0.05070835447918302,0.29079007116969513,0.0009217162796917415,-0.33110224155099877,-0.474264284247924,0.0,0.0
1.3627254509018036,0.0563388234010106,0.28152344609137936,-0.005417087251922122,-0.3169401765806932,-0.6030479561202107,0.0,0.0
1.3827655310621243,0.06173550988206829,0.26983432405288404,-0.01143727372052044,-0.30100932342991593,-0.7231062610120669,0.0,0.0
1.4028056112224447,0.06685328195906325,0.2558886038497479,-0.017106584946889887,-0.28346556131847234,-0.8338140021452591,0.0,0.0
1.4228456913827654,0.07165056053958449,0.2398639290260619,-0.022396045487971777,-0.2644730270540945,-0.9346256024272397,0.0,0.0
1.442885771543086,0.0760895238129007,0.2219481636658106,-0.02728009897457418,-0.24420267433012008,-1.0250787418896914,0.0,0.0
1.4629258517034067,0.08013627984624691,0.20233780166731072,-0.03173671473461015,-0.22283078800179826,-1.1047971887931052,0.0,0.0
1.4829659318637274,0.08376100635702181,0.18123632553874486,-0.03574746421530005,-0.2005374740344951,-1.1734927355600115,0.0,0.0
1.503006012024048,0.08693805700124224,0.1588525322110216,-0.039297567137052715,-0.17750514608763324,-1.2309661785593122,0.0,0.0
1.5230460921843687,0.08964603388677003,0.1353988442763898,-0.04237590772075665,-0.15391702918519706,-1.277107311553194,0.0,0.0
1.5430861723446894,0.09186782639455354,0.11108962538917584,-0.04497502171468604,-0.12995569969646958,-1.3118939344082483,0.0,0.0
1.56312625250501,0.0935906167606684,0.08613951830574293,-0.047091055295000364,-0.10580167901571595,-1.3353899095328023,0.0,0.0
1.5831663326653307,0.09480585322517983,0.06076182322557098,-0.048723697215424695,-0.08163209602121645,-1.3477423266504662,0.0,0.0
1.6032064128256511,0.09550919188090276,0.03516693278614667,-0.0498760858307113,-0.05761943076433034,-1.3491778604408509,0.0,0.0
1.6232464929859718,0.0957004086478656,0.00956083834814201,-0.05055469281164719,-0.03393034904679462,-1.339998424116006,0.0,0.0
1.6432865731462925,0.09538328305165218,-0.015856279810670917,-0.05076918550653467,-0.010724634744373955,-1.320576234468437,0.0,0.0
1.6633266533066131,0.09456545569206072,-0.04089136797957295,-0.050532269987902424,0.011845775931612245,-1.2913484100456385,0.0,0.0
1.6833667334669338,0.09325826145126702,-0.0653597120396848,-0.0498595168587871,0.03363765645576635,-1.2528111013322545,0.0,0.0
1.7034068136272544,0.09147654065659866,-0.08908603973341779,-0.04876917195891298,0.054517244993705874,-1.205514066132089,0.0,0.0
1.723446893787575,0.08923843022597706,-0.11190552153107956,-0.04728195367880916,0.07436091400519078,-1.1500536344591301,0.0,0.0
1.7434869739478958,0.0865651374425995,-0.13366463916887855,-0.045420839393924134,0.09305571424425159,-1.0870672896044042,0.0,0.0
1.7635270541082164,0.08348069836892766,-0.15422195368359207,-0.04321084249184144,0.11049984510413444,-1.0172273791662898,0.0,0.0
1.783567134268537,0.08001172324702323,-0.17344875609522148,-0.04067878191363777,0.12660302891018366,-0.9412351335008943,0.0,0.0
1.8036072144288577,0.07618713111318307,-0.19122960669200803,-0.03785304592591888,0.1412867993859444,-0.8598148396336085,0.0,0.0
1.8236472945891782,0.07203787579786623,-0.20746276576584177,-0.03476335175492858,0.15448470854951468,-0.7737081745622962,0.0,0.0
1.8436873747494988,0.0675966654256913,-0.2220605186087464,-0.03144050265239288,0.16614245512678513,-0.6836687396529687,0.0,0.0
1.8637274549098195,0.0628976774594594,-0.23494939831159517,-0.027916143897015737,0.1762179377688571,-0.5904567843662646,0.0,0.0
1.8837675350701402,0.05797627126693996,-0.2460703096259721,-0.02422251919141853,0.18468123527986025,-0.49483411461757626,0.0,0.0
1.9038076152304608,0.052868700126162495,-0.2553785570388731,-0.02039222888231869,0.1915145154549921,-0.3975591787751233,0.0,0.0
1.9238476953907815,0.047611824524513305,-0.2628437800824595,-0.01645799140832126,0.19671187369987142,-0.29938231847338714,0.0,0.0
1.9438877755511021,0.0422428285508247,-0.26844979868443003,-0.012452409364057272,0.2002791022131995,-0.2010411761459715,0.0,0.0
1.9639278557114228,0.03679894112563518,-0.2721943712594761,-0.008407741555465423,0.20223339042959237,-0.1032562516822885,0.0,0.0
1.9839679358717435,0.03131716376242736,-0.274088868160391,-0.004355682406146231,0.20260295746595963,-0.006726607183641167,0.0,0.0
2.004008016032064,0.0258340064992091,-0.27415786316091295,-0.00032715005376289,0.20142661761916703,0.0878742745971857,0.0,0.0
2.024048096192385,0.02038523358269239,-0.27243864582583543,0.003647915555760644,0.19875328047617669,0.17990246560790774,0.0,0.0
2.0440881763527052,0.01500562042393202,-0.26898065793801845,0.007540743313447826,0.19464138788435906,0.2687473819777936,0.0,0.0
2.064128256513026,0.0097287232720226,-0.26384485759547094,0.011323909130563418,0.18915829085577965,0.3538354756501887,0.0,0.0
2.0841683366733466,0.0045866630136167565,-0.2571030129202922,0.014971500471689625,0.18237956705631037,0.4346331186985472,0.0,0.0
2.1042084168336674,-0.00039007581022709476,-0.24883694119219255,0.018459266477497505,0.17438830029039407,0.5106503197013817,0.0,0.0
2.124248496993988,-0.005172829355187195,-0.239137677248005,0.021764752386094943,0.16527429542987193,0.5814430347330779,0.0,0.0
2.1442885771543083,-0.009734921327811355,-0.228104598631208,0.024867417732631833,0.15513326732684443,0.6466156594566428,0.0,0.0
2.164328657314629,-0.014051811407818034,-0.21584450400033395,0.027748737644359464,0.14406599558638153,0.7058230297424708,0.0,0.0
2.1843687374749496,-0.018101224495575927,-0.20247065438789474,0.03039228677015358,0.13217745628970579,0.7587720043678181,0.0,0.0
2.2044088176352705,-0.021863260203886518,-0.18810178541552955,0.03278380555221843,0.11957593910324253,0.8052226050337477,0.0,0.0
2.224448897795591,-0.0253204821838028,-0.1728610989958142,0.03491124872013948,0.10637215839605267,0.844988696164766,0.0,0.0
2.244488977955912,-0.028457987050432874,-0.15687524333150357,0.03676481605946885,0.09267836696646846,0.8779381952372067,0.0,0.0
2.2645290581162323,-0.03126345285328684,-0.14027329014269843,0.03833696567453245,0.07860748075317982,0.9039928132522661,0.0,0.0
2.284569138276553,-0.033727167213369075,-0.12318571800411177,0.03962241012438179,0.06427222249246706,0.9231273339427417,0.0,0.0
2.3046092184368736,-0.035842035422564776,-0.10574341045978505,0.040618095958523566,0.049784291707088715,0.9353684489468732,0.0,0.0
2.3246492985971945,-0.0376035689667748,-0.08807667721050116,0.04132316731262415,0.03525356770502928,0.9407930579827375,0.0,0.0
2.344689378757515,-0.039009855135198855,-0.07031430842120248,0.04173891440975207,0.020787354856395834,0.939526797501475,0.0,0.0
2.3647294589178354,-0.04006150828107508,-0.05258265729381133,0.04186870755381696,0.0064896572032446045,0.9317409155594875,0.0,0.0
2.3847695390781563,-0.040761603936546625,-0.035004782773577145,0.0417179180453979,-0.007539475420953186,0.9176502181299331,0.0,0.0
2.4048096192384767,-0.04111559655889415,-0.017699631117376085,0.04129382671090876,-0.02120456672445699,0.8975100226220186,0.0,0.0
2.4248496993987976,-0.04113122206589955,-0.0007812753502700331,0.04060552121023198,-0.03441527503383873,0.8716130443271044,0.0,0.0
2.444889779559118,-0.04081838633829189,0.015641786380382987,0.039663783232764954,-0.04708689887335138,0.8402861064336571,0.0,0.0
2.464929859719439,-0.04018904093105918,0.031467270361635616,0.0384809667130155,-0.05914082598747261,0.8038867156020144,0.0,0.0
2.4849699398797593,-0.03925704728392617,0.04659968235665066,0.03707086820688445,-0.07050492530655254,0.7627995422377385,0.0,0.0
2.50501002004008,-0.03803803075564601,0.060950826414007904,0.03544859057061599,-0.081113881813423,0.7174328410407942,0.0,0.0
2.5250501002004007,-0.036549225828303444,0.07444024636712818,0.033630401078040634,-0.09090947462876753,0.6682148433751922,0.0,0.0
2.5450901803607215,-0.03480931383808621,0.08699559951086157,0.031633585099983146,-0.09984079890287435,0.6155901490536749,0.0,0.0
2.565130260521042,-0.03283825458938526,0.09855296243504746,0.02947629645395418,-0.10786443230144824,0.5600161418870022,0.0,0.0
2.5851703406813624,-0.03065711320076354,0.10905706943108599,0.02717740551320013,-0.11494454703770246,0.5019594453317708,0.0,0.0
2.6052104208416833,-0.0282878835172603,0.11846148417516196,0.024756346145166946,-0.12105296840165922,0.44189244034803576,0.0,0.0
2.6252505010020037,-0.025753309401255652,0.1267287058002324,0.022232962525620594,-0.12616918097731755,0.3802898558763253,0.0,0.0
2.6452905811623246,-0.023076705188112015,0.1338302106571819,0.019627356851438973,-0.13028028370908112,0.317625444816671,0.0,0.0
2.665330661322645,-0.02028177656191939,0.13974643130963116,0.016959738949635372,-0.13338089509017997,0.2543687570001857,0.0,0.0
2.685370741482966,-0.017392443071311006,0.1444666745304193,0.014250278752082427,-0.13547300987764724,0.1909820196052554,0.0,0.0
2.7054108216432864,-0.014432663465782366,0.14798898027643204,0.01151896257425492,-0.13656580889137535,0.1279171354936244,0.0,0.0
2.7254509018036073,-0.01142626498915259,0.1503199238314888,0.008785454101283924,-0.1366754236485498,0.06561281023288001,0.0,0.0
2.7454909819639277,-0.008396777718590192,0.15147436352811988,0.006068960944981912,-0.13582465781510059,0.004491819407315009,0.0,0.0
2.7655310621242486,-0.0053672749846433694,0.1514751366973411,0.0033881075904481817,-0.13404266772668652,-0.05504157146676987,0.0,0.0
2.785571142284569,-0.0023602208497000596,0.1503527067471655,0.000760815499876436,-0.13136460452858728,-0.1126040213337906,0.0,0.0
2.8056112224448895,0.0006026744410088593,0.14814476453544595,-0.001795808916103338,-0.1278312207989887,-0.16783534861149485,0.0,0.0
2.8256513026052104,0.0035005901905365774,0.1448957874763859,-0.004265577812927737,-0.12348844484121992,-0.2204005728520547,0.0,0.0
2.845691382765531,0.006313721392452516,0.14065656009579694,-0.00663331633579686,-0.11838692614345617,-0.2699917491679053,0.0,0.0
2.8657314629258517,0.009023394592858775,0.1354836600203129,-0.008884947451721808,-0.11258155579624743,-0.31632958211618106,0.0,0.0
2.885771543086172,0.011612172865672564,0.12943891364068946,-0.011007566770025106,-0.10613096591516488,-0.35916480680015567,0.0,0.0
2.905811623246493,0.014063949384068545,0.1225888259197991,-0.01298950701655785,-0.0990970123266372,-0.39827932652257525,0.0,0.0
2.9258517034068134,0.01636402916431925,0.11500398901253524,-0.014820391915154977,-0.09154424492985633,-0.43348709838053423,0.0,0.0
2.9458917835671343,0.018499198654699452,0.10675847451901005,-0.016491179319941512,-0.08353937023932685,-0.46463476065950104,0.0,0.0
2.9659318637274548,0.02045778294064023,0.09792921429703892,-0.017994193532683715,-0.0751507106371102,-0.49160199868447624,0.0,0.0
2.9859719438877756,0.02222969043683001,0.088595374809489,-0.019323146829081234,-0.06644766481987596,-0.5143016488215985,0.0,0.0
3.006012024048096,0.02380644503629163,0.07883772997308097,-0.02047315030538318,-0.05750017381509727,-0.5326795434668383,0.0,0.0
3.0260521042084165,0.0251812057844226,0.06873803740654856,-0.021440714240738432,-0.04837819676776265,-0.5467141029894388,0.0,0.0
3.0460921843687374,0.026348774241398296,0.05837842284878467,-0.022223738250155313,-0.03915120047084409,-0.5564156837874121,0.0,0.0
3.066132264529058,0.02730558978802417,0.04784077733129358,-0.02282149157681241,-0.02988766633285478,-0.5618256939391529,0.0,0.0
3.0861723446893787,0.028049713217249285,0.0372061714612559,-0.023234583940265088,-0.020654618172633844,-0.5630154911477703,0.0,0.0
3.106212424849699,0.02858079903494518,0.026554290884794787,-0.023464927417874426,-0.011517173880466875,-0.5600850791964092,0.0,0.0
