time,x,x_dot,theta,theta_dot,u,x_ref,theta_ref
0.0,0.0068478286056326,0.007867081241297716,-0.14565031921788463,-0.0387226863156682,-5.215224786572935,0.0,0.0
0.02004008016032064,0.005014276662312401,-0.09167759716600993,-0.1443247643296696,0.06627774441075135,-4.986794453442045,0.0,0.0
0.04008016032064128,0.0012784092954895715,-0.18679336834114146,-0.1410223252881193,0.16512195207751465,-4.682710004774917,0.0,0.0
0.06012024048096192,-0.004242381475111258,-0.2760395385300415,-0.135896685067324,0.25628201103976544,-4.35324352999227,0.0,0.0
0.08016032064128256,-0.01142139424806597,-0.3589506386477356,-0.12910430139700477,0.33961918351596126,-4.002240869115001,0.0,0.0
0.1002004008016032,-0.02012403256522521,-0.43513191585796196,-0.12080346868893949,0.41504163540326433,-3.6330730057664202,0.0,0.0
0.12024048096192384,-0.030209036905707982,-0.5042502170241385,-0.11115363979567863,0.48249144466304256,-3.24893717154635,0.0,0.0
0.1402805611222445,-0.04152965440205003,-0.5660308748171026,-0.10031481051432449,0.5419414640677073,-2.852869027586436,0.0,0.0
0.16032064128256512,-0.05393475290765932,-0.6202549252804642,-0.08844694320432922,0.5933933654997632,-2.447766419512484,0.0,0.0
0.18036072144288576,-0.06726988976561044,-0.666756842897556,-0.07570940524593857,0.6368768979195328,-2.036417647014942,0.0,0.0
0.2004008016032064,-0.08137834668079608,-0.7054228457592819,-0.06226040087772675,0.6724502184105907,-1.6215306527598257,0.0,0.0
0.22044088176352705,-0.09610214184083658,-0.7361897580020254,-0.048256379089879224,0.7002010893923764,-1.2057600643179809,0.0,0.0
0.24048096192384769,-0.11128302908003283,-0.7590443619598125,-0.03385140533438267,0.7202486877748278,-0.7917296091737074,0.0,0.0
0.2605210420841683,-0.12676349167100112,-0.7740231295484142,-0.019196490456794855,0.7327457438793906,-0.38204801975340946,0.0,0.0
0.280561122244489,-0.1423877355005467,-0.7812121914772794,-0.004438876076901639,0.7378807189946608,0.020682866550512213,0.0,0.0
0.3006012024048096,-0.15800268317560434,-0.7807473837528826,0.010278718715258133,0.7358797396079886,0.4138685367867099,0.0,0.0
0.32064128256513025,-0.1734589672379694,-0.7728142031182541,0.024818879358767133,0.72700803217545,0.7949309370271038,0.0,0.0
0.3406813627254509,-0.18861191735582405,-0.7576475058927317,0.03905029220968061,0.7115706425456738,1.1613259647200922,0.0,0.0
0.3607214428857715,-0.2033225333015817,-0.7355307972878826,0.05284853772752064,0.6899122758920015,1.5105684805089237,0.0,0.0
0.3807615230460922,-0.2174584328944682,-0.7067949796443245,0.06609686078053414,0.6624161526506754,1.8402635533515288,0.0,0.0
0.4008016032064128,-0.23089476203273251,-0.6718164569132153,0.07868689757090114,0.6295018395183499,2.148142264226747,0.0,0.0
0.42084168336673344,-0.2435150525846905,-0.6310145275978998,0.09051933912893867,0.5916220779018764,2.432100085065729,0.0,0.0
0.4408817635270541,-0.25521201333475163,-0.5848480375030566,0.10150451295659581,0.5492586913828569,2.690235644641969,0.0,0.0
0.4609218436873747,-0.2658882394336185,-0.5338113049433431,0.11156286706141065,0.5029177052407423,2.9208876152507948,0.0,0.0
0.48096192384769537,-0.2754568268777682,-0.47842937220748316,0.12062534410163109,0.45312385201102207,3.1226675220185776,0.0,0.0
0.501002004008016,-0.2838418803883859,-0.41925267553088663,0.1286336374091101,0.40041466537395015,3.2944864997752785,0.0,0.0
0.5210420841683366,-0.29097890556904943,-0.35685125903317494,0.13554032499295537,0.34533437919226395,3.4355743956448475,0.0,0.0
0.5410821643286573,-0.2968150792417667,-0.2918086836358629,0.1413088819725859,0.2884278489815262,3.545490116718443,0.0,0.0
0.561122244488978,-0.3013093952006231,-0.22471579794282182,0.14591357597589774,0.230234700165592,3.6241227121273707,0.0,0.0
0.5811623246492986,-0.3044326860647319,-0.15616454320543832,0.14933925362962447,0.1712838826863357,3.6716833046324053,0.0,0.0
0.6012024048096192,-0.3061675252345443,-0.08674195849062043,0.15158102917425378,0.11208877723146578,3.688688588613415,0.0,0.0
0.6212424849699398,-0.30650801594915267,-0.017024535730417345,0.15264388832361492,0.05314295746805729,3.675937130991992,0.0,0.0
0.6412825651302605,-0.30545947693194336,0.05242695086046631,0.15254222169466042,-0.005083331447724819,3.6344801015239865,0.0,0.0
0.6613226452905812,-0.3030380359720522,0.12107204799455816,0.15129930245948148,-0.06214596175894694,3.5655882888072066,0.0,0.0
0.6813627254509018,-0.29927014395246093,0.18839460097956306,0.14894672238626952,-0.11762900366059781,3.4707173187290317,0.0,0.0
0.7014028056112224,-0.29419202229602687,0.25390608282170235,0.14552379925907427,-0.17114615635976202,3.351472893818038,0.0,0.0
0.721442885771543,-0.28784905660792226,0.3171482844052312,0.14107696695673563,-0.22234161511693215,3.2095776424661455,0.0,0.0
0.7414829659318637,-0.28029514854181714,0.37769540330525725,0.13565915741000736,-0.27089047733641375,3.0468408441315096,0.0,0.0
0.7615230460921844,-0.2715920367337945,0.43515559040113294,0.12932918142837294,-0.3164987990817216,2.865131922297608,0.0,0.0
0.781563126252505,-0.26180859617445656,0.48917202796689613,0.1221511131701028,-0.3589034129135066,2.666358210851095,0.0,0.0
0.8016032064128256,-0.2510201237695838,0.5394236202436375,0.11419368097465112,-0.3978716097725841,2.4524472438096514,0.0,0.0
0.8216432865731462,-0.23930761616396057,0.5856253802811622,0.10552966544640636,-0.4332007764122375,2.2253326996448632,0.0,0.0
0.8416833667334669,-0.22675704459798354,0.6275285782988519,0.0962353046270514,-0.46471804096774794,1.9869453970142965,0.0,0.0
0.8617234468937875,-0.21345862973942517,0.664920742927919,0.08638970441253357,-0.49228001072589156,1.739206151482514,0.0,0.0
0.8817635270541082,-0.19950611886156697,0.6976255438929101,0.07607425262810166,-0.5157725892215955,1.4840217020263076,0.0,0.0
0.9018036072144289,-0.18499606670018054,0.7255026080693221,0.06537203474259332,-0.5351108942754174,1.2232821244474863,0.0,0.0
0.9218436873747494,-0.1700271208951641,0.7484472902508212,0.05436724962748675,-0.5502392557553285,0.9588595918950669,0.0,0.0
0.9418837675350701,-0.15469931253782893,0.76639041786676,0.04314462414851479,-0.5611312739485981,0.6926061018867218,0.0,0.0
0.9619238476953907,-0.13911335286926368,0.7792979834282617,0.03178882697421248,-0.5677898587151154,0.4263517315687369,0.0,0.0
0.9819639278557114,-0.12336993706574019,0.7871707901761746,0.020383882463185485,-0.5702472255513498,0.16190123007546908,0.0,0.0
1.002004008016032,-0.10756905676318593,0.7900440151277129,0.009012587008710935,-0.5685647727237275,-0.09897081714172729,0.0,0.0
1.0220440881763526,-0.09180932356550316,0.7879866598841384,-0.002244068650802211,-0.5628327829756573,-0.3545266167335561,0.0,0.0
1.0420841683366733,-0.07618730648388322,0.7811008540809966,-0.013307466555047552,-0.553169895212267,-0.6030736893048259,0.0,0.0
1.062124248496994,-0.06079688696430126,0.7695209759790983,-0.02410191256458836,-0.5397223004770404,-0.8429752288918271,0.0,0.0
1.0821643286573146,-0.04572863582006879,0.7534125572116235,-0.03455516513688617,-0.5226626286148903,-1.0726620953091535,0.0,0.0
1.1022044088176353,-0.03106921694250416,0.7329709438782311,-0.044598935264516214,-0.5021885063815024,-1.2906461003738317,0.0,0.0
1.122244488977956,-0.01690082306965346,0.7084196936425351,-0.054169350932723376,-0.47852078341035803,-1.4955341357911975,0.0,0.0
1.1422845691382766,-0.0033006491141406614,0.6800086977756399,-0.06320737969988796,-0.4519014383582293,-1.6860426044120789,0.0,0.0
1.1623246492985972,0.009659591438578011,0.6480120276359336,-0.07165920355419052,-0.4225911927151276,-1.8610115626511612,0.0,0.0
1.1823647294589177,0.021914101763776117,0.6127255162599052,-0.07947654101976677,-0.39086687327881253,-2.0194179638057577,0.0,0.0
1.2024048096192383,0.03340338370173161,0.5744640968977746,-0.08661691252767814,-0.35701857539556886,-2.160387411639807,0.0,0.0
1.222444889779559,0.04407456231761342,0.5335589307940902,-0.09304384627134309,-0.32134668718324755,-2.2832038903370586,0.0,0.0
1.2424849699398797,0.0538816496307187,0.49035436565526425,-0.09872702306572398,-0.28415883971904454,-2.387317027590313,0.0,0.0
1.2625250501002003,0.06278574510089037,0.44520477350858356,-0.10364236005490496,-0.24576684945904875,-2.472346566298545,0.0,0.0
1.282565130260521,0.0707551715329916,0.3984713216050616,-0.10777203439590473,-0.2064837170499887,-2.538083858792063,0.0,0.0
1.3026052104208417,0.07776554618042517,0.3505187323716784,-0.11110444922583021,-0.16662074149627384,-2.584490345600921,0.0,0.0
1.3226452905811623,0.08379978794199594,0.3017120880785385,-0.11363414524261654,-0.12648480083931649,-2.6116931275424933,0.0,0.0
1.342685370741483,0.08884806260091865,0.25241373294613595,-0.11536166205691285,-0.08637584071481541,-2.6199778745108766,0.0,0.0
1.3627254509018036,0.09290766900400538,0.20298032015433648,-0.1162933540788005,-0.046584601094382436,-2.609779427235714,0.0,0.0
1.3827655310621243,0.09598286988528068,0.15376004406376528,-0.11644116607775842,-0.007390599947896204,-2.5816705322023266,0.0,0.0
1.4028056112224447,0.09808467167474716,0.10509008947332407,-0.11582237370218172,0.030939618778834922,-2.5363492003605566,0.0,0.0
1.4228456913827654,0.09923055808540096,0.057294320532689874,-0.11445929418385,0.0681539759165862,-2.4746251960562797,0.0,0.0
1.442885771543086,0.09944418253801318,0.010681222630611255,-0.11237897221222479,0.10401609858126018,-2.397406145548702,0.0,0.0
1.4629258517034067,0.09875502457341273,-0.0344578982300226,-0.1096128455808273,0.13830633156987424,-2.305683708938419,0.0,0.0
1.4829659318637274,0.09719801533563914,-0.07785046188867958,-0.1061963947257535,0.1708225427536899,-2.200520191626886,0.0,0.0
1.503006012024048,0.09481313701342617,-0.1192439161106488,-0.10216877973889635,0.20138074934285777,-2.083035827381337,0.0,0.0
1.5230460921843687,0.09164500085775788,-0.15840680778341426,-0.09757246792432185,0.22981559072872465,-1.954397353476116,0.0,0.0
1.5430861723446894,0.08774240789693191,-0.1951296480412983,-0.09245285423648114,0.2559806843920354,-1.815806803371186,0.0,0.0
1.56312625250501,0.08315789640648696,-0.22922557452224715,-0.0868578769580918,0.27974886391946685,-1.6684923811848358,0.0,0.0
1.5831663326653307,0.0779472794112278,-0.26053084976295815,-0.08083763001409916,0.3010123471996322,-1.5136997478860323,0.0,0.0
1.6032064128256511,0.07216917537548564,-0.28890520178710755,-0.07444397340105864,0.3196828306520258,-1.35268441477006,0.0,0.0
1.6232464929859718,0.0658845348504741,-0.314232026250577,-0.06773014293892687,0.3356915231065886,-1.1867049170078738,0.0,0.0
1.6432865731462925,0.05915616558997797,-0.3364184630248064,-0.06075036049270574,0.34898912231105655,-1.0170166012584188,0.0,0.0
1.6633266533066131,0.05204825845205294,-0.3553953568962516,-0.053559445847260335,0.3595457322722702,-0.8448658517993647,0.0,0.0
1.6833667334669338,0.04462591627616413,-0.37111710879444054,-0.04621243153469564,0.36735071562823485,-0.6714845652545084,0.0,0.0
1.7034068136272544,0.03695468786575662,-0.3835614205203753,-0.03876418210117434,0.37241247167606484,-0.49808471601929577,0.0,0.0
1.723446893787575,0.029100109201481504,-0.3927289332137557,-0.03126901952733582,0.3747581286919258,-0.3258527561709973,0.0,0.0
1.7434869739478958,0.021127254097401616,-0.3986427552039944,-0.023780356832449955,0.37443313474429335,-0.15594444359786194,0.0,0.0
1.7635270541082164,0.013100296359227579,-0.4013478869087018,-0.01635034179663854,0.3715007517905707,0.01052159175629891,0.0,0.0
1.783567134268537,0.005082086000955088,-0.4009105179136246,-0.0090295135613607,0.36604141176389204,0.17246950237900355,0.0,0.0
1.8036072144288577,-0.002866258231045943,-0.39741721160005156,-0.0018664744433433099,0.3581519559008695,0.32887253386533943,0.0,0.0
1.8236472945891782,-0.01068573753208809,-0.39097396505210735,0.005092420341786758,0.3479447392565034,0.4787593664895635,0.0,0.0
1.8436873747494988,-0.018319840421522886,-0.3817051444717398,0.011803352393886198,0.33554660260497193,0.6212204732542983,0.0,0.0
1.8637274549098195,-0.02571488635795361,-0.3697522968215361,0.018225306706724363,0.3210977156419082,0.75541436310382,0.0,0.0
1.8837675350701402,-0.03282034317977969,-0.355272841091304,0.024320312702047594,0.3047502997661615,0.880573558124303,0.0,0.0
1.9038076152304608,-0.03958911609071919,-0.33843864554697484,0.030053657559519643,0.28666724287360246,0.9960101431044233,0.0,0.0
1.9238476953907815,-0.04597780609850824,-0.3194345003894525,0.03539407000558815,0.2670206223034253,1.1011207252549506,0.0,0.0
1.9438877755511021,-0.051946936063386094,-0.29845649824389275,0.04031387310834702,0.2459901551379437,1.1953906510555459,0.0,0.0
1.9639278557114228,-0.05746114281623073,-0.2757103376422316,0.04478910505471027,0.2237615973181624,1.2783973453916972,0.0,0.0
1.9839679358717435,-0.06248933415618593,-0.25140956699776035,0.04879960734277596,0.20052511440328485,1.3498126641121326,0.0,0.0
2.004008016032064,-0.06700480992361607,-0.2257737883715069,0.052329080287471096,0.17647364723475656,1.409404183116753,0.0,0.0
2.024048096192385,-0.07098534675366924,-0.1990268415026587,0.055365106193163566,0.1518012952846235,1.4570353829884684,0.0,0.0
2.0440881763527052,-0.0744132465349795,-0.17139498906551287,0.05789914097609901,0.1267017391467722,1.492664725692767,0.0,0.0
2.064128256513026,-0.0772753490132235,-0.1431051239122005,0.0599264754078265,0.10136672158637475,1.516343656635433,0.0,0.0
2.0841683366733466,-0.07956300937710857,-0.11438301819425391,0.06144616748684705,0.07598460395102752,1.5282135991855834,0.0,0.0
2.1042084168336674,-0.08127204203302034,-0.08545163279558841,0.0624609477217061,0.05073901174295239,1.5285020377284426,0.0,0.0
2.124248496993988,-0.08240263210412334,-0.05652950355515013,0.06297709932054067,0.02580757994172873,1.5175178079465586,0.0,0.0
2.1442885771543083,-0.08295921647278466,-0.027829218433065944,0.06300431542924242,0.0013608054350876357,1.4956457283885733,0.0,0.0
2.164328657314629,-0.08295033641712601,0.0004440027829325406,0.06255553564586395,-0.02243898916892333,1.463340715110277,0.0,0.0
2.1843687374749496,-0.08238846407146011,0.02809361728329521,0.06164676406853792,-0.04543857886630176,1.4211215214321413,0.0,0.0
2.2044088176352705,-0.08128980506717186,0.05493295021441259,0.06029687111614053,-0.06749464761986947,1.3695641387994,0.0,0.0
2.224448897795591,-0.07967407982731345,0.08078626199292066,0.05852738136301998,-0.08847448765602751,1.30929563359469,0.0,0.0
2.244488977955912,-0.07756428580695605,0.10548970101786999,0.0563622492237468,-0.10825660696365881,1.240986743684683,0.0,0.0
2.2645290581162323,-0.07498644344841096,0.12889211792725436,0.05382762494066867,-0.1267312141539063,1.1653459347997916,0.0,0.0
2.284569138276553,-0.07196932804857951,0.15085576999157257,0.05095161241462526,-0.1438006263021709,1.083112819744707,0.0,0.0
2.3046092184368736,-0.06854418998575018,0.1712569031414667,0.047764020769259355,-0.15937958226829518,0.9950519563625037,0.0,0.0
2.3246492985971945,-0.06474446561031932,0.1899862187715426,0.04429611133291438,-0.1733954718172486,0.9019468453906883,0.0,0.0
2.344689378757515,-0.06060548103357082,0.20694922883742495,0.040580341649907696,-0.18578848415033442,0.8045941735795024,0.0,0.0
2.3647294589178354,-0.05616415096258674,0.22206650354920415,0.036650108057602715,-0.19651167961524912,0.7037982812532311,0.0,0.0
2.3847695390781563,-0.05145867465261975,0.23527381549834947,0.03253948831899655,-0.2055309869303083,0.6003658435799369,0.0,0.0
2.4048096192384767,-0.04652823097614685,0.24652218382364513,0.0282829857700644,-0.2128251274466074,0.49510074936557574,0.0,0.0
2.4248496993987976,-0.04141267454177152,0.25577782171876623,0.023915276424052487,-0.21838546730059571,0.3887991571492371,0.0,0.0
2.444889779559118,-0.03615223473712066,0.263021990232543,0.019470960468495953,-0.22221579777782674,0.2822447104741824,0.0,0.0
2.464929859719439,-0.03078721951659232,0.26825076102641715,0.014984319589631766,-0.2243320439432093,0.17620389860978125,0.0,0.0
2.4849699398797593,-0.025357725705192215,0.27147469057000523,0.010489081557588775,-0.22476190160214965,0.07142155430711186,0.0,0.0
2.50501002004008,-0.01990335754148656,0.27271840818528265,0.006018193499485343,-0.22354440290517158,-0.03138351008120316,0.0,0.0
2.5250501002004007,-0.014462955132050577,0.2720201204717992,0.0016036052701948614,-0.22072941146452407,-0.13152271833672516,0.0,0.0
2.5450901803607215,-0.009074334433508354,0.26943103492711107,-0.002723935702212475,-0.2163770486203668,-0.22834177898114494,0.0,0.0
2.565130260521042,-0.003774040312974591,0.26501470602668814,-0.006935076771194432,-0.21055705344909786,-0.32122467200478877,0.0,0.0
2.5851703406813624,0.001402885787768037,0.2588463050371314,-0.011002038297293426,-0.20334807630494972,-0.4095967513920158,0.0,0.0
2.6052104208416833,0.006423122406227923,0.2510118309229943,-0.014898776894087154,-0.19483692983968634,-0.4929288653510483,0.0,0.0
2.6252505010020037,0.01125526725870194,0.2416072426237008,-0.01860113221160203,-0.18511776587574377,-0.5707399025612248,0.0,0.0
2.6452905811623246,0.015870018129412782,0.23073754353554213,-0.022086956650931053,-0.17429122196645117,-0.6425995978880286,0.0,0.0
2.665330661322645,0.02024033439422438,0.21851581324057995,-0.02533622720262507,-0.16246352758470084,-0.7081308181458662,0.0,0.0
2.685370741482966,0.02434157832797041,0.20506219668730136,-0.028331138845980826,-0.14974558216778788,-0.7670114096603271,0.0,0.0
2.7054108216432864,0.028151635515445764,0.19050285937376768,-0.0310561791313596,-0.1362520142689387,-0.8189755754262729,0.0,0.0
2.7254509018036073,0.03165101386829539,0.17496891764248154,-0.03349818375863989,-0.12210023136401453,-0.8638147576744928,0.0,0.0
2.7454909819639277,0.03482292094014788,0.15859535359262464,-0.03564637315686205,-0.10740946991110834,-0.9013780110959755,0.0,0.0
2.7655310621242486,0.037653319426694504,0.14151992432733118,-0.037492370258141755,-0.0922998550639851,-0.9315718622582043,0.0,0.0
2.785571142284569,0.0401309609320903,0.12388207526978993,-0.03903019983843221,-0.07689147901452262,-0.954359661306668,0.0,0.0
2.8056112224448895,0.042247398274118386,0.10582186710140422,-0.04025626996469397,-0.061303506313087994,-0.9697604423431965,0.0,0.0
2.8256513026052104,0.04399697678425319,0.08747892550674036,-0.0411693362392113,-0.04565331372586656,-0.9778473183848309,0.0,0.0
2.845691382765531,0.04537680523168401,0.06899142237154099,-0.041770449664763426,-0.030055671277606392,-0.9787453229366454,0.0,0.0
2.8657314629258517,0.0463867072072882,0.050495098780209344,-0.04206288913901169,-0.014621973712413337,-0.9726295117307743,0.0,0.0
2.885771543086172,0.04702915369309225,0.032122324290202384,-0.04205207929976757,0.0005404919622059006,-0.9597213352766524,0.0,0.0
2.905811623246493,0.047309178208782,0.014001225784487654,-0.04174549532352547,0.01532919881210505,-0.940286188679748,0.0,0.0
2.9258517034068134,0.047234275459619335,-0.0037451374581332943,-0.04115255547463738,0.029646992444404788,-0.9146299346430723,0.0,0.0
2.9458917835671343,0.04681428480371362,-0.020999532795285755,-0.040284502695268676,0.0434026389684351,-0.883095396196042,0.0,0.0
2.9659318637274548,0.04606125986248741,-0.03765124706131051,-0.03915427645103337,0.056511312211765044,-0.8460587013168729,0.0,0.0
2.9859719438877756,0.04498932565126965,-0.05359671056088788,-0.037776376055770375,0.06889501976315003,-0.8039255237559881,0.0,0.0
3.006012024048096,0.04361452464403742,-0.06874005036161163,-0.03616671669708441,0.08048296793429809,-0.7571272601575038,0.0,0.0
3.0260521042084165,0.04195465320904171,-0.08299357174978557,-0.03434247937445451,0.09121186613149519,-0.7061171787875565,0.0,0.0
3.0460921843687374,0.04002908986219381,-0.09627816734239472,-0.03232195594613346,0.10102617141605252,-0.6513665700257283,0.0,0.0
3.066132264529058,0.03785861678454833,-0.10852365388227435,-0.03012439046171484,0.10987827422093101,-0.593360926269622,0.0,0.0
3.0861723446893787,0.035465236039818306,-0.11966903723650113,-0.027769817934228846,0.11772862637429976,-0.5325961664829802,0.0,0.0
3.106212424849699,0.032871981912261275,-0.12966270637785163,-0.02527890168459954,0.12454581248146532,-0.4695749303226559,0.0,0.0
