time,x,x_dot,theta,theta_dot,u,x_ref,theta_ref
0.0,-1.5097379613045137,-0.0483773850454454,-0.03769170887154755,0.09383678962888439,-9.999999658976746,0.0,0.0
0.02004008016032064,-1.5145965783975042,-0.2429308546495291,-0.03020759381696054,0.3742057527293504,-8.887034682973345,0.0,0.0
0.04008016032064128,-1.5229143465252377,-0.4158884063866826,-0.017717841546459827,0.6244876135250357,-7.694128029765166,0.0,0.0
0.06012024048096192,-1.5342295524659235,-0.565760297034289,-0.0008395565496741482,0.8439142498392839,-6.456972550243338,0.0,0.0
0.08016032064128256,-1.5480642083038794,-0.6917327918977912,0.01981060794451312,1.0325082247093635,-5.204643105956672,0.0,0.0
0.1002004008016032,-1.5639350580547708,-0.7935424875445705,0.04362896262054418,1.1909177338015526,-3.941861263563365,0.0,0.0
0.12024048096192384,-1.581355192193077,-0.871006706915311,0.07002387901790473,1.3197458198680274,-2.6702848040893548,0.0,0.0
0.1402805611222445,-1.5998345900845288,-0.9239698945725812,0.09841395421855645,1.419503760032586,-1.392068701593032,0.0,0.0
0.16032064128256512,-1.6188809736038192,-0.9523191759645173,0.12822724350023035,1.4906644640836946,-0.11099143034771553,0.0,0.0
0.18036072144288576,-1.6380013893045011,-0.9560207850340987,0.15890204263540794,1.5337399567588794,1.1669839150577381,0.0,0.0
0.2004008016032064,-1.6567047028986737,-0.9351656797086249,0.18988929251255043,1.549362493857125,2.4334104678498827,0.0,0.0
0.22044088176352705,-1.6745050782580257,-0.8900187679676012,0.22065646891987709,1.538358820366333,3.677267123760732,0.0,0.0
0.24048096192384769,-1.6909264276184601,-0.8210674680217163,0.25069267393526984,1.5018102507696387,4.885067404796417,0.0,0.0
0.2605210420841683,-1.7055077443005853,-0.7290658341062569,0.2795145469989949,1.4410936531862542,6.0411701947681635,0.0,0.0
0.280561122244489,-1.7178091598279046,-0.6150707763659613,0.3066725621807435,1.357900759087431,7.1283119405064665,0.0,0.0
0.3006012024048096,-1.727418496403723,-0.480466828790914,0.33175726195856536,1.2542349888910937,8.12838187973862,0.0,0.0
0.32064128256513025,-1.7339580105493115,-0.32697570727943076,0.3544049858604106,1.1323861950922607,9.02345126757972,0.0,0.0
0.3406813627254509,-1.7370909455673085,-0.15664675089984664,0.37430267257583727,0.994884335771334,9.797021027317548,0.0,0.0
0.3607214428857715,-1.736527444189131,0.028175068908875583,0.3911913482472288,0.8444337835695759,9.999999864287666,0.0,0.0
0.3807615230460922,-1.73219745275986,0.21649957146354226,0.4051009427658133,0.6954797259292262,9.999999999999693,0.0,0.0
0.4008016032064128,-1.7241080031604414,0.4044724799709283,0.41614693665258423,0.5522996943385445,9.999999999999993,0.0,0.0
0.42084168336673344,-1.7122647214823088,0.5921640839066307,0.42442140723907856,0.413723529324717,9.999999535922088,0.0,0.0
0.4408817635270541,-1.6966718599427901,0.7796430769759296,0.42999355344760154,0.2786073104261495,9.999999961483349,0.0,0.0
0.4609218436873747,-1.6773323263478728,0.966976679745867,0.43291011529615336,0.14582809242759182,9.999999994030416,0.0,0.0
0.48096192384769537,-1.6542477081749094,1.1542309086481672,0.43319567136284604,0.014277803334633299,9.999999997219765,0.0,0.0
0.501002004008016,-1.6274182867898002,1.3414710692554646,0.4308528003431329,-0.11714355098565635,9.999999999449546,0.0,0.0
0.5210420841683366,-1.5968430411031933,1.5287622843303377,0.4258621019884464,-0.24953491773432543,9.999999999414946,0.0,0.0
0.5410821643286573,-1.5625196402567203,1.7161700423236532,0.41818207656393336,-0.3840012712256521,9.999999999868603,0.0,0.0
0.561122244488978,-1.52444442615677,1.9037607049975174,0.4077488670340854,-0.5216604764923983,9.99999999999803,0.0,0.0
0.5811623246492986,-1.4826123879202744,2.091601911824779,0.3944758736806617,-0.6636496676711838,9.999999999980384,0.0,0.0
0.6012024048096192,-1.4370171317966127,2.279762806183078,0.37825325758233813,-0.811130804916181,9.999999996064155,0.0,0.0
0.6212424849699398,-1.3876508520940651,2.468313985127378,0.3589473581785878,-0.9652949701875153,9.999999999999302,0.0,0.0
0.6412825651302605,-1.3345043112584696,2.657327041779777,0.3364000619011474,-1.1273648138720187,9.599697491982782,0.0,0.0
0.6613226452905812,-1.2777218145606495,2.839124834891009,0.3106474686606495,-1.287629662024894,8.754375189382497,0.0,0.0
0.6813627254509018,-1.217619351058963,3.0051231750843277,0.2819524953139284,-1.4347486673360568,7.892107651974957,0.0,0.0
0.7014028056112224,-1.15451957535713,3.1549887850916547,0.2505767585139251,-1.5687868400001659,7.007257103845515,0.0,0.0
0.721442885771543,-1.0887543177130379,3.2882628822046085,0.2167871946201755,-1.6894781946874782,6.101090030289813,0.0,0.0
0.7414829659318637,-1.020664351765667,3.4044982973685443,0.18085827278099662,-1.7964460919589444,5.173497166400502,0.0,0.0
0.7615230460921844,-0.9505996157426042,3.5032368011531427,0.14307432754501323,-1.8891972617991692,4.223773020709514,0.0,0.0
0.781563126252505,-0.878919578437658,3.584001865247313,0.10373157138823368,-1.9671378078389776,3.2511230237301567,0.0,0.0
0.8016032064128256,-0.8059935476422082,3.646301539772492,0.0631395005699414,-2.029603540914614,2.255122828133679,0.0,0.0
0.8216432865731462,-0.7322007402019561,3.6896403720126014,0.02162144791384321,-2.0759026328049095,1.2361299276745585,0.0,0.0
0.8416833667334669,-0.6579299567315993,3.7135391735178427,-0.020485908684913977,-2.1053678299378595,0.19563922068291584,0.0,0.0
0.8617234468937875,-0.5835787334344902,3.717561164855452,-0.06283419784087194,-2.1174144577978975,-0.8634284430531178,0.0,0.0
0.8817635270541082,-0.5095518786483164,3.7013427393086897,-0.1050661891038559,-2.1115995631491984,-1.9365157655129324,0.0,0.0
0.9018036072144289,-0.4362593412708315,3.664626868874245,-0.14681973043887347,-2.0876770667508793,-3.0173053804331396,0.0,0.0
0.9218436873747494,-0.36411339942753895,3.6072970921646266,-0.18773260945246473,-2.0456439506795623,-4.097687949686879,0.0,0.0
0.9418837675350701,-0.29352519725794834,3.5294101084795306,-0.2274480768634667,-1.985773370550099,-5.167823276729411,0.0,0.0
0.9619238476953907,-0.22490069281347286,3.431225222223775,-0.26562071781588237,-1.9086320476207814,-6.216290042026029,0.0,0.0
0.9819639278557114,-0.15863610811804363,3.3132292347714607,-0.3019223416322558,-1.8150811908186717,-7.230323744514777,0.0,0.0
1.002004008016032,-0.095112995599678,3.1761556259182817,-0.33604758056567596,-1.706261946671009,-8.196141887690926,0.0,0.0
1.0220440881763526,-0.0346930546639806,3.0209970467848697,-0.36771893690077184,-1.5835678167547942,-9.099363499036864,0.0,0.0
1.0420841683366733,0.02228714666512431,2.8490100664552456,-0.39669108006019377,-1.4486071579710968,-9.925534011732472,0.0,0.0
1.062124248496994,0.07552136372690635,2.661710853089102,-0.42275425609927614,-1.303158801954119,-9.99999927525993,0.0,0.0
1.0821643286573146,0.12499327968758624,2.4735957980339944,-0.4460849340776652,-1.1665338989194527,-9.999999999942405,0.0,0.0
1.1022044088176353,0.1707140992055132,2.286040975896348,-0.46687800828042403,-1.0396537101379428,-9.999999999952726,0.0,0.0
1.122244488977956,0.21269379382340703,2.098984730894691,-0.4853080385015623,-0.9215015110569141,-9.999999999937803,0.0,0.0
1.1422845691382766,0.250941157592986,1.912368188478949,-0.5015303108076553,-0.8111136153046494,-9.999999999987239,0.0,0.0
1.1623246492985972,0.28546387500820414,1.7261358707609045,-0.5156818705569136,-0.7075779874629139,-9.99999999998759,0.0,0.0
1.1823647294589177,0.31626859307326344,1.5402359032529647,-0.5278824957013246,-0.6100312572205494,-9.999999999999993,0.0,0.0
1.2024048096192383,0.34336099221237276,1.354619956955465,-0.5382355895627489,-0.517654693071211,-10.0,0.0,0.0
1.222444889779559,0.3667458525725922,1.169243018010972,-0.5468289798780424,-0.42966951576467205,-10.0,0.0,0.0
1.2424849699398797,0.3864271135516876,0.9840630489547695,-0.5537356161484046,-0.3453318135181101,-10.0,0.0,0.0
1.2625250501002003,0.4024079252513266,0.7990405849819525,-0.5590141608358191,-0.2639272343707263,-10.0,0.0,0.0
1.282565130260521,0.4146906911267902,0.6141382937731775,-0.56270947220337,-0.18476556837754082,-9.999999993108972,0.0,0.0
1.3026052104208417,0.42327710146647785,0.42932051698438267,-0.5648529779592131,-0.10717528779215733,-9.99999999726998,0.0,0.0
1.3226452905811623,0.4281681575317423,0.2445528032632244,-0.5654629395788107,-0.030498080979877162,-9.999999999985011,0.0,0.0
1.342685370741483,0.42936418633294554,0.05980144006016022,-0.5645446075305895,0.04591660241105712,-9.99999999992678,0.0,0.0
1.3627254509018036,0.42686484602864433,-0.12496701521506176,-0.5620902676204861,0.12271699550517541,-9.999999999913284,0.0,0.0
1.3827655310621243,0.420669121965503,-0.30978620315706684,-0.5580791785828423,0.20055445188218762,-9.999999999894781,0.0,0.0
1.4028056112224447,0.4107753133762239,-0.49469042946395236,-0.5524774008897226,0.28008888465598225,-9.999999999758598,0.0,0.0
1.4228456913827654,0.39718101075829926,-0.6797151308962329,-0.5452375166462547,0.36199421217339534,-9.999999999013628,0.0,0.0
1.442885771543086,0.37988306399945226,-0.8648973379423506,-0.5362982405023007,0.4469638071977025,-10.0,0.0,0.0
1.4629258517034067,0.3588775414157452,-1.0502761291853535,-0.5255839218543265,0.5357159323987095,-9.999999999999991,0.0,0.0
1.4829659318637274,0.3341596800676676,-1.2358930674038793,-0.5130039394007118,0.6289991226807357,-10.0,0.0,0.0
1.503006012024048,0.30572382804670245,-1.4217926010482569,-0.4984519905300088,0.7275974435351457,-9.999999999999998,0.0,0.0
1.5230460921843687,0.2735633799621268,-1.6080224042287825,-0.48180528036171333,0.8323355084147739,-9.999999999999998,0.0,0.0
1.5430861723446894,0.2376707076670804,-1.7946336147523212,-0.46292361885776334,0.9440830751974999,-9.999999999999103,0.0,0.0
1.56312625250501,0.19803708946191753,-1.9816809102581432,-0.44164843977010626,1.0637589543828554,-9.999999999997772,0.0,0.0
1.5831663326653307,0.15465264274047405,-2.1692223360721736,-0.4178017629082473,1.1923338430929502,-9.999999999999998,0.0,0.0
1.6032064128256511,0.1075062674840935,-2.3573187628190277,-0.3911851321079958,1.3308315400125716,-9.999999999999986,0.0,0.0
1.6232464929859718,0.0565856113866247,-2.54603280487344,-0.361578576366654,1.480327787067091,-9.999999999946576,0.0,0.0
1.6432865731462925,0.0018770719812755132,-2.735426970267459,-0.32873966208396455,1.641945714134474,-9.99999999999125,0.0,0.0
1.6633266533066131,-0.056634142766792614,-2.9255607374034063,-0.29240273154569285,1.8168465269135832,-9.999999999999776,0.0,0.0
1.6833667334669338,-0.1189638660609956,-3.116486164710149,-0.25227845799336374,2.006213677616456,-9.99999999989083,0.0,0.0
1.7034068136272544,-0.18512869689585615,-3.3082415417430275,-0.2080538916949593,2.211228314920221,-8.907052543952554,0.0,0.0
1.723446893787575,-0.2547203766987132,-3.479583990142854,-0.1600168362179063,2.4018527738526507,-7.4142444127319855,0.0,0.0
1.7434869739478958,-0.3271728239942197,-3.622622364775325,-0.10868240032149337,2.5667217948206464,-5.778660468141086,0.0,0.0
1.7635270541082164,-0.40186136657467403,-3.7344271290227162,-0.05465309083261694,2.7014654744438213,-4.083873872610381,0.0,0.0
1.783567134268537,-0.47813534112483314,-3.8136987275079552,0.001428332990226433,2.8040711911421687,-2.35521497772143,0.0,0.0
1.8036072144288577,-0.5553285721042943,-3.8596615489730586,0.058896172136017624,2.8733919572895594,-0.6153087014963061,0.0,0.0
1.8236472945891782,-0.6327692104463315,-3.8720319171018587,0.11708014059965974,2.9091984231821058,1.3429560303891868,0.0,0.0
1.8436873747494988,-0.7097002648243269,-3.8465527188997704,0.17519187072127265,2.9055865060806454,3.284912302421279,0.0,0.0
1.8637274549098195,-0.7853727411404069,-3.7836238158039968,0.2324700189026311,2.863907409067923,5.163416712626195,0.0,0.0
1.8837675350701402,-0.8590653927016249,-3.6846325780608957,0.2882139188297035,2.7871949963536196,7.207121583311173,0.0,0.0
1.9038076152304608,-0.9299969792256563,-3.5465793262015732,0.34165981837062026,2.6722949770458384,9.433014598647315,0.0,0.0
1.9238476953907815,-0.9973209741195629,-3.366199744695332,0.3919791660553964,2.5159673842388073,10.0,0.0,0.0
1.9438877755511021,-1.0608373532960331,-3.1758189588235126,0.439268435188697,2.3644634566650304,10.0,0.0,0.0
1.9639278557114228,-1.1205655079900587,-2.986407734701277,0.4839171133402002,2.23243390757516,10.0,0.0,0.0
1.9839679358717435,-1.1765238741444801,-2.797918307721074,0.5262974716189311,2.1190179139365477,10.0,0.0,0.0
2.004008016032064,-1.2287297123448193,-2.6102919100169557,0.5667656927759173,2.023411057849304,10.0,0.0,0.0
2.024048096192385,-1.277198995892371,-2.4234641773775896,0.6056634331938946,1.9448870208988638,9.999999999999995,0.0,0.0
2.0440881763527052,-1.3219463678045318,-2.2373685956080402,0.6433196658308481,1.8828116318476773,9.999999999999996,0.0,0.0
2.064128256513026,-1.3629851372715995,-2.0519384733533914,0.680052693434498,1.8366513801824957,10.0,0.0,0.0
2.0841683366733466,-1.400327293535357,-1.8671078131878764,0.7161722537117027,1.805978013860233,10.0,0.0,0.0
2.1042084168336674,-1.433983520589545,-1.682811352709401,0.7519816620878864,1.790470418809188,10.0,0.0,0.0
2.124248496993988,-1.4639631998946148,-1.4989839652534809,0.7877799548305023,1.789914637130796,10.0,0.0,0.0
2.1442885771543083,-1.4902743907917393,-1.3155595448562263,0.8238640071075938,1.804202613854571,9.999999999999556,0.0,0.0
2.164328657314629,-1.5129237797934154,-1.1324694500838108,0.8605306082450658,1.833330056873598,10.0,0.0,0.0
2.1843687374749496,-1.5319165906731114,-0.949640543984794,0.8980784810264758,1.8773936390705026,10.0,0.0,0.0
2.2044088176352705,-1.5472564474906894,-0.7669928408789043,0.9368102341212353,1.9365876547379766,10.0,0.0,0.0
2.224448897795591,-1.558945182569856,-0.5844367539583323,0.9770342372263229,2.0112001552543775,10.0,0.0,0.0
2.244488977955912,-1.5669825811848836,-0.4018699307513829,1.019066407713594,2.1016085243635554,10.0,0.0,0.0
2.2645290581162323,-1.571366054536208,-0.21917366756621798,1.0632318958136102,2.2082744050008074,10.0,0.0,0.0
2.284569138276553,-1.572090232769046,-0.03620891164189838,1.109866652825189,2.331737850578943,10.0,0.0,0.0
2.3046092184368736,-1.5691464706698133,0.14718810496163542,1.1593188635149843,2.4726105344897604,10.0,0.0,0.0
2.3246492985971945,-1.5625222607375813,0.3312104966116017,1.2119502194505298,2.6315677967772735,9.99999999999982,0.0,0.0
2.344689378757515,-1.5522005522174598,0.5160854260060714,1.2681370036520936,2.809339210078189,9.9999999999972,0.0,0.0
2.3647294589178354,-1.5381589812746186,0.7020785471420543,1.3282709469249128,3.0066971636409625,10.0,0.0,0.0
2.3847695390781563,-1.5203690279626583,0.8894976655980189,1.3927597993783158,3.2244426226701535,9.999999999998579,0.0,0.0
2.4048096192384767,-1.4987951315822015,1.0786948190228405,1.4620275315587936,3.463386609023893,10.0,0.0,0.0
2.4248496993987976,-1.4733938195397593,1.2700656021221042,1.536514029646149,3.7243249043677733,9.999999999999998,0.0,0.0
2.444889779559118,-1.444112938653466,1.4640440443146667,1.6166740650778362,4.008001771584357,9.999999999999936,0.0,0.0
2.464929859719439,-1.4108911254790004,1.661090658723273,1.7029751818685133,4.315055839533853,10.0,0.0,0.0
2.4849699398797593,-1.3736577176857214,1.861670389663947,1.7958939298810703,4.645937400627849,9.999999999997666,0.0,0.0
2.50501002004008,-1.3323333956460963,2.066216101981254,1.89590955094679,5.000781053285989,9.585267729209693,0.0,0.0
2.5250501002004007,-1.2869838211400726,2.2674787253011823,2.003421056288386,5.375575267079801,9.999999999999998,0.0,0.0
2.5450901803607215,-1.2373681279709068,2.480784658458291,2.11894870635573,5.776382503367214,-9.999999999999988,0.0,0.0
2.565130260521042,-1.1908087711568422,2.3279678407032294,2.2371041914949603,5.907774256961522,9.999999999999995,0.0,0.0
2.5851703406813624,-1.1398704294265436,2.54691708651493,2.3639364706765464,6.341613959079304,-9.999999999999998,0.0,0.0
2.6052104208416833,-1.0920290411416085,2.3920694142467505,2.491583567223271,6.382354827336233,9.466897394103919,0.0,0.0
2.6252505010020037,-1.039986833369047,2.6021103886280716,2.627800118311292,6.8108275544010475,-9.999999999999998,0.0,0.0
2.6452905811623246,-0.9912214877302274,2.438267281940975,2.7626267978898897,6.741333978929881,1.5940939694177612,0.0,0.0
2.665330661322645,-0.941417911363269,2.4901788183479185,2.9010734280424195,6.922331507626499,-9.999999999999993,0.0,0.0
2.685370741482966,-0.8952126394825606,2.3102635940354213,3.03568102656312,6.730379926035023,-5.436175166845293,0.0,0.0
2.7054108216432864,-0.8510035097515933,2.2104564865483636,3.167934257840662,6.612661563877099,-9.999999999995831,0.0,0.0
2.7254509018036073,-0.8107264596656439,2.0138525042974686,3.294140324582837,6.31030333710876,-9.771955646827376,0.0,0.0
2.7454909819639277,-0.7744170938554409,1.815468290510152,3.4135747059525503,5.971719068485661,-9.999999999999819,0.0,0.0
2.7655310621242486,-0.7422492265092394,1.6083933673100714,3.525450314051012,5.593780404923085,-9.8676405332161,0.0,0.0
2.785571142284569,-0.714217722012696,1.4015752248271744,3.629375809944146,5.196274794656706,-9.999999999999499,0.0,0.0
2.8056112224448895,-0.6903865943532944,1.1915563829700777,3.724984975863561,4.780458295970766,-6.91777112517034,0.0,0.0
2.8256513026052104,-0.6695655728713863,1.0410510740954082,3.813591125338859,4.430307473764899,-10.0,0.0,0.0
2.845691382765531,-0.6529069125158916,0.8329330177747334,3.8936559470366467,4.003241084889395,-2.564757963191628,0.0,0.0
2.8657314629258517,-0.6375609043930579,0.7673004061416839,3.9682693642563467,3.730670860984992,-9.99999999999722,0.0,0.0
2.885771543086172,-0.6262981685527687,0.5631367920144619,4.034413699982514,3.3072167863084,0.9913418053588678,0.0,0.0
2.905811623246493,-0.6149582444758878,0.5669962038440469,4.096053867306747,3.082008366211623,-9.999999999999998,0.0,0.0
2.9258517034068134,-0.6076125432453661,0.36728506152608587,4.149437818826298,2.669197575977553,3.5753396286703527,0.0,0.0
2.9458917835671343,-0.5991756421691506,0.42184505381077125,4.198725244172828,2.464371267326489,-9.442059904316796,0.0,0.0
2.9659318637274548,-0.5944436517049783,0.23659952320861846,4.240165656250402,2.072020603878675,4.9237405998625565,0.0,0.0
2.9859719438877756,-0.5880758656293099,0.3183893037834196,4.277488259193673,1.866130147163547,-2.8166374044343048,0.0,0.0
3.006012024048096,-0.5829062885064556,0.25847885614271465,4.308724779361578,1.5618260083952709,4.150376609377643,0.0,0.0
3.0260521042084165,-0.5763501777676839,0.3278055369385866,4.335373680907303,1.33244507728627,1.8699104380898754,0.0,0.0
3.0460921843687374,-0.5692303345111491,0.3559921628267394,4.356870074059858,1.0748196576277314,3.974848782313981,0.0,0.0
3.066132264529058,-0.5607607993898603,0.42347675606443874,4.373561864811716,0.8345895375929357,3.8640230540577503,0.0,0.0
3.0861723446893787,-0.5509719107277007,0.4894444331079845,4.385368807372803,0.5903471280543462,4.31641611731653,0.0,0.0
3.106212424849699,-0.5396901742090683,0.5640868259316205,4.392329701353532,0.3480446990364222,4.362581259316581,0.0,0.0
3.12625250501002,-0.5268936881067852,0.639824305114157,4.394427102614947,0.10487006307076102,4.310699403729615,0.0,0.0
3.1462925851703405,-0.5125992083888481,0.7147239858968559,4.3916447706575745,-0.13911659786863065,4.095986385045014,0.0,0.0
3.1663326653306614,-0.49688592018827765,0.7856644100285212,4.383956346628604,-0.38442120144854364,3.7481057694201287,0.0,0.0
3.186372745490982,-0.4798846489136674,0.8500635637305136,4.371328478602844,-0.6313934012879903,3.2785281910541326,0.0,0.0
3.2064128256513023,-0.46177375436546525,0.9055447274101073,4.353719140557929,-0.8804669022457645,2.702989111808686,0.0,0.0
3.226452905811623,-0.44277348058551375,0.9500136889975743,4.331075422182103,-1.1321859187913015,2.0369040521088033,0.0,0.0
3.2464929859719436,-0.4231404370912621,0.981652174712583,4.303330432026834,-1.3872495077634672,1.295301370699934,0.0,0.0
3.2665330661322645,-0.4031622324418345,0.9989102324713782,4.270399737854383,-1.646534708622544,0.4923461732348873,0.0,0.0
3.286573146292585,-0.3831524264256219,1.0004903008106303,4.232177679309842,-1.9111029272270692,-0.3589164955786389,0.0,0.0
