time,x,x_dot,z,z_dot,theta,theta_dot,u1,u2,x_ref,z_ref,theta_ref
0.0,0.5748453837732472,0.06673386691671651,1.047904460184225,0.09468981922802258,-0.10526657683505607,0.029384668650043466,0.10919913524975614,0.11110627172001417,0.5,1.0,0.0
0.020026702269692925,0.5758359364937243,0.049527636023856014,1.0491222834451903,0.06089116304826664,-0.10315365825587641,0.1056459289589825,0.13007917734972196,0.13202911621571153,0.4999824541392403,1.0041887412073853,0.0
0.04005340453938585,0.5764176299155437,0.029084671090966692,1.050280647329426,0.05791819421178201,-0.09948266097786451,0.18354986390059566,0.13430554333116712,0.1356023238511605,0.4999298177883902,1.0083771884344908,0.0
0.06008010680907877,0.5765870850982769,0.008472759136664069,1.0514954042973936,0.06073784839838901,-0.09477772212071572,0.23524694285744,0.1359436559607486,0.13676550357470338,0.49984209464164997,1.0125650477216688,0.0
0.0801068090787717,0.5763551355847744,-0.011597475675129927,1.0528092898353694,0.0656942768987917,-0.0894199618584728,0.26788801311214766,0.13688642754611674,0.1373694465861608,0.49971929085573213,1.0167520251505358,0.0
0.10013351134846463,0.5757388736551355,-0.03081309648194198,1.054246868972455,0.07187895685427943,-0.08368122634221034,0.2869367758131213,0.13739198097317068,0.13763282287492395,0.4995614150494292,1.0209378268645999,0.0
0.12016021361815754,0.5747592922245337,-0.04897907153009441,1.055821371021403,0.07872510244740766,-0.07775572878889728,0.2962748776656537,0.13761065662507313,0.13767956328467904,0.49936847830300873,1.0251221590898847,0.0
0.14018691588785048,0.5734396819814048,-0.06598051215644433,1.0575385991375168,0.08586140580569185,-0.07178125173441918,0.29872385272390484,0.13764602258154632,0.13759437532053034,0.499140494157436,1.0293047281555483,0.0
0.1602136181575434,0.5718045016108226,-0.08175901852910714,1.0593996198479663,0.09305103552247684,-0.06585429910789722,0.29634763132609726,0.1375984973477373,0.13746249045823414,0.4988774786134233,1.0334852405144925,0.0
0.1802403204272363,0.5698785355557138,-0.09629830275544046,1.0614034511716957,0.10019156618646943,-0.06004229679454293,0.290600115667714,0.1374725875061594,0.13727900779668817,0.49857945013030697,1.0376634027639664,0.0
0.20026702269692925,0.5676864651512549,-0.10960352022294584,1.0635470276323515,0.10717882303279427,-0.05439115640972489,0.28255701924090215,0.13734701785338005,0.13711476216046867,0.4982464296247522,1.0418389216661577,0.0
0.22029372496662217,0.5652524258880943,-0.12170196315802875,1.0658273996902063,0.11401860289274529,-0.048931615940057856,0.2729770234833521,0.1371555157378989,0.136897860401187,0.4978784404692846,1.0460115041687736,0.0
0.24032042723631508,0.5625999366450697,-0.13262446215123413,1.0682396890913544,0.12061447005739705,-0.04368375656337496,0.26239296883414376,0.13697310415267752,0.13669956111218423,0.4974755084906501,1.0501808574256075,0.0
0.260347129506008,0.5597516401307833,-0.14241482571432007,1.0707792597847752,0.1269785346710411,-0.03866002849424477,0.2511864034565098,0.13675633800345366,0.13647343754486893,0.4970376619680023,1.0543466888170925,0.0
0.28037383177570097,0.5567292880263356,-0.15111760522238127,1.0734403981225176,0.1330569168871241,-0.03386764643216074,0.23961910310420156,0.1365431287573279,0.13625538031108905,0.4965649316309177,1.0585087059708387,0.0
0.30040053404539385,0.5535536366189207,-0.1587825703707486,1.076217418491141,0.13885101843117506,-0.02931021306617052,0.22787166829951105,0.1363495241843435,0.136060031460223,0.49605735065723894,1.0626666167821521,0.0
0.3204272363150868,0.5502444081692417,-0.16546142248394946,1.0791051314720905,0.14438564904747414,-0.024988848228900393,0.21606824186350584,0.13617057310349617,0.13588138071015365,0.49551495467074635,1.066820129434536,0.0
0.34045393858477974,0.5468202935216232,-0.1712057323809243,1.082098695171134,0.14967818495217086,-0.020903039205671815,0.2042904511614291,0.13598610659341778,0.13569888769122151,0.4949377817386579,1.0709689524201722,0.0
0.3604806408544726,0.5432989723867262,-0.1760660567448502,1.0851930256727205,0.15471652507932707,-0.017050939786834442,0.19260497094186887,0.1358037535449359,0.13551964458506258,0.49432587236895703,1.0751127945603784,0.0
0.38050734312416556,0.5396971127242352,-0.18009298312455008,1.0883830282703864,0.15950012988328913,-0.01342980107582842,0.18105693555030092,0.13561833065890055,0.13533825611023376,0.49367926950755014,1.0792513650260465,0.0
0.4005340453938585,0.5360303856653215,-0.18333635294568257,1.0916634530724916,0.16402124010526026,-0.010036141951465072,0.16968295621816756,0.1354362381622175,0.13516080573132205,0.49299801853525244,1.083384373358051,0.0
0.4205607476635514,0.5323134772211879,-0.18584542220667635,1.0950290915349616,0.16828192312350704,-0.006866003107084369,0.15850694221903497,0.13525580430377648,0.13498543127990775,0.49228216726460267,1.087511529487638,0.0
0.44058744993324434,0.52856010804637,-0.1876684587408981,1.0984747346714894,0.17228215682638948,-0.003915099697145292,0.14754517049695384,0.13507569492843058,0.1348107516050711,0.4915317659365077,1.09163254375678,0.0
0.4606141522029373,0.52478305427506,-0.188852688565502,1.101995142537572,0.1760203933041369,-0.0011788590589665504,0.13681203190893715,0.13489591320354968,0.13463680435859499,0.49074686721671645,1.0957471269385064,0.0
0.48064085447263016,0.5209941689695662,-0.18944426527469088,1.1055850536984115,0.17949555804198064,0.0013476068062603054,0.12632329326134276,0.13471717227819427,0.13446427899566255,0.48992752619212343,1.0998549902572035,0.0
0.5006675567423231,0.5172044046752052,-0.18948821471804903,1.109239214010877,0.1827080156232766,0.003669482197319593,0.1160937695529644,0.13453899810403386,0.13429259110193217,0.48907380036690284,1.1039558454088796,0.0
0.520694259012016,0.5134238373430358,-0.18902836660847566,1.1129523680928433,0.18565770409830862,0.0057921593735799325,0.10613385881301704,0.1343625119705284,0.13412289312107023,0.48818574965847245,1.108049404581401,0.0
0.540720961281709,0.5096616913637027,-0.1881072989666552,1.1167192993780661,0.1883465642611452,0.007721263530104627,0.09645520782623464,0.13418810760574207,0.13395553004491573,0.48726343639328856,1.1121353804746905,0.0
0.5607476635514019,0.5059263654818226,-0.1867662940940042,1.1205348466322123,0.19077736270730603,0.009462613843176463,0.08706751565359182,0.13401699186465926,0.1337917042534688,0.48630692530247177,1.116213486320892,0.0
0.5807743658210948,0.5022254597511315,-0.18504528653455304,1.1243939444838895,0.1929548925838608,0.011022219968298682,0.07798030625611099,0.13384914698073236,0.13363135638900622,0.4853162835172637,1.1202834359044958,0.0
0.6008010680907877,0.49856580297528663,-0.18298283879224425,1.1282916264032605,0.19488409596855594,0.012406248852218277,0.06920144419597973,0.13368590720436666,0.1334758247557331,0.48429158056431554,1.1243449435824273,0.0
0.6208277703604806,0.49495348110794807,-0.18061609336692763,1.13222306778224,0.1965720689489746,0.013621028093680489,0.060738962073110636,0.1335273703363126,0.13332515958198804,0.4832328883608088,1.128397724304094,0.0
0.6408544726301736,0.4913938657918726,-0.17798076580377417,1.136183590982891,0.19802616003255133,0.01467300800012873,0.05259899532241184,0.1333749626771086,0.13318078924510396,0.48214028120940733,1.1324414936313905,0.0
0.6608811748998665,0.4878916438030743,-0.17511109943991462,1.14016870993593,0.19925594765194055,0.01556876339655271,0.04478776982119891,0.13322802437204273,0.1330420173491949,0.48101383579304297,1.1364759677586627,0.0
0.6809078771695595,0.48445084595683174,-0.17203989231212924,1.1441741118166022,0.20027009403361332,0.016314964534987954,0.037310056921762355,0.13308815139150595,0.13291041957992147,0.47985363116953333,1.1405008635326255,0.0
0.7009345794392524,0.4810748771487051,-0.1687984404063301,1.1481957053664893,0.20107967749435546,0.016918361030198708,0.030169824760537613,0.13295465588607494,0.13278528651379548,0.4786597487660336,1.144515898472236,0.0
0.7209612817089452,0.4777665455096072,-0.165416581954896,1.1522296010768154,0.20169478551630493,0.017385764771573716,0.023370187068750364,0.13282865087355802,0.13266769796573147,0.4774322723733215,1.1485207907885173,0.0
0.7409879839786382,0.4745280923857651,-0.16192265619210375,1.156272144215301,0.20212715692428423,0.017724023539117686,0.016912938377198747,0.13271099820331503,0.1325584931865355,0.4761712881399164,1.1525152594043386,0.0
0.7610146862483311,0.47136122219324306,-0.1583435096261034,1.1603199402139368,0.2023897999317848,0.017940003116450217,0.010798978866626511,0.13260014064733366,0.13245612446475008,0.47487688456603344,1.156499023974139,0.0
0.7810413885180241,0.46826713086648536,-0.15470456633788576,1.1643698085628273,0.2024934174445253,0.01804059510085803,0.005029599220390597,0.13249718153663964,0.13236160269455985,0.47354915249737217,1.1604718049036047,0.0
0.801068090787717,0.46524653539595334,-0.15102977352660002,1.168418813829437,0.20245026333047755,0.018032643133815158,-0.0003975983521438131,0.13240263181616824,0.1322754425643223,0.4721881851187405,1.1644333233692916,0.0
0.82109479305741,0.462299702915117,-0.14734162404181522,1.172464280316231,0.20227332433970802,0.017922946129401575,-0.005484850220678496,0.13231530422236149,0.13219645847282496,0.4707940779475151,1.1683833013381941,0.0
0.8411214953271028,0.4594264784100994,-0.14366122525087927,1.176503756199155,0.20197379414619074,0.017718260764869667,-0.010234268226595712,0.13223624867824735,0.13212564051638995,0.46936692882693704,1.1723214615872586,0.0
0.8611481975967957,0.4566263131647746,-0.14000826226624066,1.1805350429401582,0.20156433705016805,0.017425254296837327,-0.01465032340161709,0.13216408321615913,0.13206162594252926,0.4679068379192454,1.1762475277228392,0.0
0.8811748998664887,0.45389829152728517,-0.1364010818744721,1.1845561536892175,0.20105553745296484,0.017050519852700292,-0.018736722206851953,0.13209976831135986,0.13200531621969372,0.46641390769864727,1.1801612242000974,0.0
0.9012016021361816,0.451241158325967,-0.13285666006590904,1.1885653398947515,0.2004593102767036,0.01660052914512042,-0.022499535378993282,0.13204180111691474,0.13195524919430904,0.46488824294412573,1.184062276342339,0.0
0.9212283044058746,0.44865334454106537,-0.1293906892450828,1.1925610463327325,0.19978532189904763,0.01608166499868971,-0.02594320732153555,0.13199057525067442,0.13191175495907978,0.4633299507320861,1.1879504103602934,0.0
0.9412550066755675,0.44613299329239875,-0.12601756243332968,1.1965419207974808,0.19904372323740846,0.015500170487579035,-0.02907472555553346,0.13194569078221863,0.13187441703609407,0.4617391404288412,1.1918253533713281,0.0
0.9612817089452603,0.44367798493469013,-0.12275041788543117,1.2005068009567679,0.19824400796435734,0.014862135710241598,-0.0319017388668718,0.13190677407875623,0.13184285658264475,0.4601159236829352,1.1956868334186013,0.0
0.9813084112149533,0.44128596150248944,-0.11960117161003354,1.2044547021765688,0.19739506099004758,0.014173493657768186,-0.03443210262367057,0.13187334838495093,0.13181659226442471,0.4584604144173082,1.1995345794901475,0.0
1.0013351134846462,0.438954350412669,-0.11658055449102234,1.208384802336195,0.19650500798130935,0.013440016602384256,-0.036673852769196616,0.1318444873168596,0.13179462642664214,0.45677272882130043,1.2033683215379,0.0
1.0213618157543392,0.4366803872785957,-0.11369815670366556,1.2122964123858198,0.19558050248124184,0.012667259146730506,-0.038637872782687425,0.08428946367753501,0.08476326800567355,0.45505298534249783,1.2071877904966422,0.0
1.041388518024032,0.43444231416733115,-0.11190365556322718,1.214788443935245,0.12460157747126004,0.0122741871325275,-0.01965360071015052,0.09911060073516567,0.09932572074628919,0.45330130467841884,1.2109927183028915,0.0
1.061415220293725,0.4322435695511588,-0.10993723080861707,1.216297709475762,0.07546327702585143,0.012053531751756935,-0.011032769038528093,0.11098737299461442,0.1110496735486959,0.4515178097680436,1.2147828379137142,0.0
1.081441922563418,0.43008719264442663,-0.10781884533660725,1.2171747965448692,0.04385435345535695,0.011882895284890749,-0.008531823343309508,0.12004594846705087,0.12000587714430261,0.44970262578318554,1.2185578833254664,0.0
1.101468624833111,0.4279756068530238,-0.10557928957013914,1.2176871652731869,0.02561843641588626,0.01168033943413521,-0.010127792537777128,0.12680732376965767,0.12670301877434634,0.44785588011970645,1.2223175895924638,0.0
1.1214953271028039,0.4259105215011969,-0.10325426759134543,1.2180345231968321,0.01736789618225957,0.011394503274674237,-0.014291807973048569,0.13173313063781195,0.1315921896838411,0.4459777023885754,1.2260616928455754,0.0
1.1415220293724968,0.42389282651830884,-0.10088474914440415,1.218362423882504,0.01639503428358636,0.01099614629365743,-0.01991784905084024,0.13520660166144136,0.13504884449938367,0.44406822440677224,1.229789930310744,0.0
1.1615487316421895,0.4219225308185732,-0.09851478498678101,1.2187735599116027,0.02055680145494263,0.01047190862611708,-0.026211883377017624,0.13755055302960428,0.13738981171699868,0.44212758018803616,1.2335020403274277,0.0
1.1815754339118825,0.4199987584795831,-0.09618861694950498,1.2193372782675131,0.028185917795525484,0.00981950830929225,-0.0326200158412414,0.13902381905712,0.1388695233178771,0.4401559059334601,1.2371977623669645,0.0
1.2016021361815754,0.4181197908339779,-0.09394838228026342,1.2200972131202048,0.037996742634581054,0.009044210372630373,-0.038764896833093754,0.1398377738328666,0.13969609836177485,0.4381533400219318,1.2408768370508576,0.0
1.2216288384512684,0.4162831430081503,-0.09183239129137864,1.2210775213124767,0.04901540961360081,0.008156216374969388,-0.044399699883049176,0.14016289569414433,0.1400377945755775,0.43612002300042185,1.244539006168978,0.0
1.2416555407209613,0.4144856605515622,-0.08987412282940216,1.2222879151846469,0.060519693608512205,0.007168883458428619,-0.04936664582703846,0.1401348482108352,0.1400284629939554,0.4340560975741196,1.2481840126976884,0.0
1.2616822429906542,0.4127236244403376,-0.0881018055612314,1.2237276653418716,0.07198750786123516,0.006097271269233062,-0.05358060945977784,0.13985928334339,0.13977259841500983,0.43196170859641764,1.2518116008178803,0.0
1.2817089452603472,0.4109928565746581,-0.08653839328397468,1.2253887207485865,0.08305277033574204,0.004957214400989786,-0.05700284341216377,0.13941962925250084,0.13935274644161422,0.42983700305874556,1.2554215159329298,0.0
1.3017356475300401,0.4092888207372115,-0.08520179187233155,1.2272581722760245,0.0934725763718981,0.003764615353468617,-0.0596299523760585,0.13887772661132916,0.1388302024898493,0.4276821300802533,1.2590135046865651,0.0
1.321762349799733,0.40760671539169985,-0.08410526727558355,1.2293200800792905,0.10309539016330313,0.002535008006715842,-0.061480367337638765,0.13827969323893405,0.13825062068594796,0.4254972408973459,1.262587314980648,0.0
1.341789052069426,0.4059415574081621,-0.08325789917688564,1.2315568352478636,0.11183775842865634,0.001283186798379614,-0.06259106041681135,0.13765947695885145,0.1376477343502562,0.4232824888530689,1.266142695992867,0.0
1.361815754339119,0.4042882566206557,-0.08266503937532033,1.233950163770761,0.11966642614486661,2.3035649724073356e-05,-0.06300755743277704,0.1370462862966598,0.13705049457246252,0.42103802938634616,1.2696793981943417,0.0
1.3818424566088119,0.4026416814683778,-0.08232875761389363,1.2364819888640781,0.12659125466585602,-0.001232677240830699,-0.06278564452773862,0.13645529580294508,0.13647405549388542,0.4187640200210709,1.2731971733671346,0.0
1.4018691588785048,0.40099671563509914,-0.08224829166393258,1.2391348804329234,0.1326445784422621,-0.0024723147475822806,-0.06198187533757908,0.13589843782421732,0.1359303091520765,0.4164606203550497,1.276695774621672,0.0
1.4218958611481975,0.3993483070606454,-0.08242042872268805,1.2418924079370264,0.13787637520514323,-0.003685402033609417,-0.06065436430135682,0.13538117040798872,0.13542460698760297,0.4141279920488021,1.2801749564140723,0.0
1.4419225634178905,0.3976915102823179,-0.08283983891637235,1.244739300240571,0.14234461517722963,-0.004862710748476925,-0.058865435743375355,0.13490653883688958,0.13496026250731075,0.4117662988142137,1.283634474563378,0.0
1.4619492656875834,0.39602152293190895,-0.0834993675204487,1.247661539470927,0.14611196151780423,-0.005996043267611058,-0.056666625956706636,0.13447650236359032,0.13453913831474082,0.40937570640304727,1.287074086268695,0.0
1.4819759679572764,0.3943337165491898,-0.0843903191359575,1.2506464172672673,0.1492438898170153,-0.007078309014307823,-0.054113287334838174,0.13409025474075065,0.13416043954180212,0.4069563825953091,1.2904935501262298,0.0
1.5020026702269693,0.3926236632735046,-0.08550266378426019,1.2536825106738252,0.15180467032789177,-0.008103514288503554,-0.05126026370978671,0.13374446572006168,0.13382101240897762,0.4045084971874737,1.2938926261462367,0.0
1.5220293724966623,0.39088715868314877,-0.08682522951779255,1.2567595857363019,0.1538537531238325,-0.00906662003771388,-0.048155287460516186,0.1477838215058339,0.14716964827356321,0.4020322219805673,1.2972710757698567,0.0
1.5420560747663552,0.38911687933130823,-0.08851396759202715,1.2602833018188153,0.1761858041256739,-0.010520256557375977,-0.07268182598310485,0.14263927230487103,0.1424204235877648,0.3995277307681099,1.3006286618858631,0.0
1.5620827770360481,0.38731000666184845,-0.09034363347298925,1.264106576140303,0.19116371607438026,-0.012147724434193858,-0.0813733938408942,0.1390320139621631,0.13899652946703153,0.3969951993239177,1.3039651488473027,0.0
1.582109479305741,0.3854615536012432,-0.09242265303026255,1.2681248585902511,0.20091412249741208,-0.013802171949184979,-0.08272237574955602,0.13622177090313292,0.13630794707103286,0.39443480538976705,1.3072803024880322,0.0
1.602136181575434,0.38356586137963755,-0.09478461108028072,1.2722563948990926,0.20657681544207024,-0.015386245578365406,-0.07920368145902144,0.1340988819804776,0.1342623631186503,0.39184672866291986,1.3105738901391553,0.0
1.622162883845127,0.38161715854195355,-0.09743514188419905,1.2764392182208617,0.20914116608845593,-0.016838166830653003,-0.07259606261437976,0.13251773821747137,0.13272744776761736,0.3892311507835117,1.3138456806453502,0.0
1.64218958611482,0.3796099155930909,-0.10036214744313335,1.2806270164063966,0.20938990927674855,-0.018121074759670355,-0.06414539645086745,0.1313510723718652,0.13158582545538852,0.38658825532180363,1.3170954443810947,0.0
1.6622162883845129,0.3775390636569218,-0.10354259680845487,1.2847854956775107,0.2079239635557004,-0.019215088215987684,-0.05470067281586656,0.13051905962518023,0.13076398330007485,0.3839182277652987,1.3203229532667808,0.0
1.6822429906542056,0.3754001129115722,-0.10694753726747971,1.2888900997929813,0.2052302057735317,-0.020112239764283467,-0.044857577414788824,0.12994811056006678,0.13019287639911228,0.38122125550572394,1.3235279807847222,0.0
1.7022696929238985,0.3731892200802742,-0.11054464156489868,1.292923889395308,0.20168948011632895,-0.02081282880368787,-0.0350294519702206,0.12957930928976827,0.12981692307545256,0.37849752782587825,1.3267103019950528,0.0
1.7222963951935915,0.37090321850332775,-0.11430007884732414,1.2968758396975997,0.19759751511458432,-0.02132274675697692,-0.025495897664452587,0.12936872551886625,0.12959454370892823,0.37574723588634806,1.329869693551513,0.0
1.7423230974632844,0.3685396206915482,-0.11817989058897635,1.3007395687091472,0.19318645057737588,-0.021651591846696933,-0.016442254486000063,0.12927103362161296,0.12948215730357682,0.3729705727120911,1.3330059337171258,0.0
1.7623497997329773,0.3660966099700906,-0.12215053607288191,1.30451201592839,0.18862236096214485,-0.021811270598348677,-0.0079839375825872,0.1292614166483122,0.12945615165321195,0.37016773317888907,1.336118802379758,0.0
1.7823765020026703,0.3635730119701521,-0.12617989999692258,1.3081927214885343,0.1840352780072116,-0.02181503258517614,-0.00018809934137311267,0.12931615692072804,0.12949357480219464,0.3673389139996707,1.339208081067569,0.0
