time,x,x_dot,z,z_dot,theta,theta_dot,u1,u2,x_ref,z_ref,theta_ref
0.0,-0.7548689806522568,-0.0483773850454454,0.9057707278211311,0.09383678962888439,-0.13507315008577328,0.0714587347113543,0.2950908101825061,0.2966828866746953,0.5,1.0,0.0
0.020026702269692925,-0.7570162637102307,-0.107364152898691,0.9124129669220691,0.3321119550468984,-0.1323715392391351,0.13508054233190764,0.05632337490488304,0.12973871836416645,0.4999824541392403,1.0041887412073853,0.0
0.04005340453938585,-0.7595324240512819,-0.1258080170525606,0.9178594055954125,0.2723219336671673,-0.07094032171467603,3.071560876222955,0.056323374914833295,0.06588704882530569,0.4999298177883902,1.0083771884344908,0.0
0.06008010680907877,-0.7622849302961359,-0.13762531224270028,0.9211748658107337,0.16577301076606277,-0.0020726943168096913,3.4433813698933164,0.05632337491842953,0.07309241052895943,0.49984209464164997,1.0125650477216688,0.0
0.0801068090787717,-0.7651706578631411,-0.14428637835025981,0.9224795507553746,0.06523424723204597,0.07993355699563555,4.100312565622262,0.17683282854749727,0.18403954500978364,0.49971929085573213,1.0167520251505358,0.0
0.10013351134846463,-0.7680647924383359,-0.14470672875974244,0.9252092725788738,0.13648609117495714,0.16735120019600394,4.370882160018421,0.24650855922558534,0.24666114698817015,0.4995614150494292,1.0209378268645999,0.0
0.12016021361815754,-0.7703727608794789,-0.11539842205715281,0.9312992654492176,0.3044996435171915,0.25451483960274557,4.358181970337083,0.2966797620827624,0.2912871864725238,0.49936847830300873,1.0251221590898847,0.0
0.14018691588785048,-0.7712273435423542,-0.04272913314376292,0.9420517290356007,0.5376231793191558,0.33700716528104246,4.124616283914842,0.29668288598661796,0.2864991266453496,0.499140494157436,1.0293047281555483,0.0
0.1602136181575434,-0.7699055970814718,0.06608732304412507,0.9572323608036836,0.7590315884041406,0.4110419946924086,3.701741470568301,0.2966828866320267,0.2832595174646869,0.4988774786134233,1.0334852405144925,0.0
0.1802403204272363,-0.7657447339545087,0.20804315634815224,0.9765800363420278,0.9673837769172123,0.47408907146577206,3.1523538386681764,0.29668288667353654,0.28145491103168596,0.49857945013030697,1.0376634027639664,0.0
0.20026702269692925,-0.7581682194467599,0.37882572538743714,0.9998285002608798,1.1624231959425961,0.5247685367728558,2.53397326535419,0.29668288638648144,0.28040616033027693,0.4982464296247522,1.0418389216661577,0.0
0.22029372496662217,-0.7467021038183883,0.57330578141858,1.026722164331165,1.344683203514259,0.5623000598696801,1.8765761548412052,0.29668288667478415,0.28041723362863774,0.4978784404692846,1.0460115041687736,0.0
0.24032042723631508,-0.7309750960723127,0.7863503873037829,1.0570420554125988,1.5159945540716828,0.5867418544468597,1.2220897288589807,0.29668288667324233,0.27992457265228043,0.4974755084906501,1.0501808574256075,0.0
0.260347129506008,-0.7107279528278737,1.0123571622219496,1.090603345545133,1.6780645066267061,0.5977375526959166,0.5497849124528554,0.2741022160070669,0.2557364038519897,0.4970376619680023,1.0543466888170925,0.0
0.28037383177570097,-0.686182891396251,1.2272530715811336,1.1267017988437114,1.804922664928926,0.594027856648668,-0.18548480236243636,0.2085671617804182,0.19339563506444582,0.4965649316309177,1.0585087059708387,0.0
0.30040053404539385,-0.6583490041768839,1.3916943609683547,1.163710813574483,1.8504507365385763,0.5781845409743734,-0.792165783714727,0.15481424968685936,0.14369981381649105,0.49605735065723894,1.0626666167821521,0.0
0.3204272363150868,-0.6281136913959262,1.5117656390478849,1.2003665064383249,1.8327846431920956,0.5534735075952516,-1.2355516689560966,0.11363842820274811,0.10574080401195676,0.49551495467074635,1.066820129434536,0.0
0.34045393858477974,-0.5961838600686296,1.5964915663648311,1.2357249899120595,1.767924173686725,0.5224904980247178,-1.5491504785266823,0.0824340459046736,0.07754585919773639,0.4949377817386579,1.0709689524201722,0.0
0.3604806408544726,-0.5630946027214188,1.6544628673605422,1.2690840348815118,1.6679522484726153,0.4876620001798522,-1.741424892243287,0.059074730782318764,0.0563233751124651,0.49432587236895703,1.0751127945603784,0.0
0.38050734312416556,-0.52924084723092,1.6926877745249396,1.2999152005581538,1.5415582838320956,0.4507101367678163,-1.847593170601796,0.05811338946597352,0.0563233749068245,0.49367926950755014,1.0792513650260465,0.0
0.4005340453938585,-0.4946817994640664,1.7279523883426815,1.328242964837961,1.4163882139903647,0.4124114188740976,-1.914935894685926,0.05723949666433712,0.05632337490988566,0.49299801853525244,1.083384373358051,0.0
0.4205607476635514,-0.4594793031526758,1.7601248155695277,1.3540918371312352,1.2924436146637106,0.37346965217310785,-1.9470883350494852,0.05661297378878387,0.056323374946156184,0.49228216726460267,1.087511529487638,0.0
0.44058744993324434,-0.4236958416161439,1.789173076826598,1.3774877245113117,1.1697943690038266,0.3343881943860622,-1.9540728893522863,0.056323374933015036,0.05632337498423328,0.4915317659365077,1.09163254375678,0.0
0.4606141522029373,-0.3873933275578799,1.8151257029131986,1.398458688008329,1.0485481748508594,0.29539909617689214,-1.949454910458503,0.056323374904881075,0.056323374905135386,0.49074686721671645,1.0957471269385064,0.0
0.48064085447263016,-0.3506330348890462,1.8380146334416876,1.4170341127445354,0.9287712368103266,0.2565019952353997,-1.9448550470746226,0.056323374905011825,0.0563233762872087,0.48992752619212343,1.0998549902572035,0.0
0.5006675567423231,-0.31347687650465805,1.8578079192194072,1.4332406311863097,0.8103259220887165,0.21769653193808675,-1.9402731648656464,0.056323374905345,0.056323418690027265,0.48907380036690284,1.1039558454088796,0.0
0.520694259012016,-0.2759873080595101,1.8744784222573982,1.447102148472607,0.6930758643148585,0.17898238205236763,-1.9357074942859545,0.05632337490512142,0.05642143792850544,0.48818574965847245,1.108049404581401,0.0
0.540720961281709,-0.2382269179182347,1.8880195070637713,1.4586412851977981,0.5769568362595622,0.1404375460186296,-1.9272418016869015,0.05632337490490081,0.05680320229260829,0.48726343639328856,1.1121353804746905,0.0
0.5607476635514019,-0.20025800716406003,1.8984455377087335,1.467882142716768,0.4620428759485016,0.10236655030189429,-1.9035497858367643,0.05632337490489124,0.057218558096282526,0.48630692530247177,1.116213486320892,0.0
0.5807743658210948,-0.162143365737723,1.9057320713168509,1.4748467054159944,0.3482281349613095,0.0650996145144574,-1.863346789371846,0.05632337500657413,0.05746789935349797,0.4853162835172637,1.1202834359044958,0.0
0.6008010680907877,-0.12394601923807949,1.9098673249821754,1.479551874304182,0.2352584444093817,0.028833028550849658,-1.8133292981803861,0.0563233749528643,0.057636051402264944,0.48429158056431554,1.1243449435824273,0.0
0.6208277703604806,-0.08572820393844069,1.91089076498194,1.482010747345322,0.1229436520569896,-0.0063024833871002245,-1.7567755968974939,0.05632337504285986,0.05782355388037495,0.4832328883608088,1.128397724304094,0.0
0.6408544726301736,-0.047550755953786335,1.9088723992327177,1.482234249347784,0.01117510012311125,-0.04016110480165221,-1.692931070727599,0.05632337491495467,0.05804966122596851,0.48214028120940733,1.1324414936313905,0.0
0.6608811748998665,-0.009472830579931042,1.9038962686927647,1.4802316129409747,-0.10013182034046657,-0.07256654606672576,-1.6202720632536771,0.05632337490488085,0.05819248451700403,0.48101383579304297,1.1364759677586627,0.0
0.6809078771695595,0.02844843890856135,1.8960634744246196,1.4760087963727913,-0.2111408284091736,-0.10340955634533826,-1.5421505139306249,0.05632337503256374,0.05815267736522423,0.47985363116953333,1.1405008635326255,0.0
0.7009345794392524,0.0661585342955229,1.8855047693480778,1.4695672811843832,-0.3220757594204091,-0.13272709514031064,-1.4658769397486173,0.05632337492983101,0.058166477648024545,0.4786597487660336,1.144515898472236,0.0
0.7209612817089452,0.10360567039470203,1.8723568049589563,1.460907861501741,-0.4329709841321128,-0.16051295113263833,-1.389292799616387,0.056323374910050454,0.05829487034526852,0.4774322723733215,1.1485207907885173,0.0
0.7409879839786382,0.14074056123817527,1.8567445421736617,1.450031795670924,-0.5438032915408434,-0.1866691092565723,-1.3078079061966963,0.056323374904882935,0.05830927011972357,0.4761712881399164,1.1525152594043386,0.0
0.7610146862483311,0.17751684313126012,1.8388140946542426,1.4369376955865167,-0.6547050042203675,-0.21118880444195054,-1.2259847592689144,0.05632337494510147,0.05825672508180969,0.47487688456603344,1.156499023974139,0.0
0.7810413885180241,0.2138912467748084,1.8187201821774133,1.4216225114310619,-0.7657592077727415,-0.23411862055149404,-1.1464908054771763,0.05632337511387431,0.058446567968539774,0.47354915249737217,1.1604718049036047,0.0
0.801068090787717,0.24982270712349658,1.7965730174344101,1.4040862762439967,-0.8768117593532616,-0.2553109543281181,-1.0596166888312024,0.08576566500704093,0.08796666896739441,0.4721881851187405,1.1644333233692916,0.0
0.82109479305741,0.2850708695510622,1.7624081213782798,1.3851757123098558,-0.9455281967070464,-0.2747079618565515,-0.9698503764216675,0.14043450909369137,0.14291228773670855,0.4707940779475151,1.1683833013381941,0.0
0.8411214953271028,0.3191743144009508,1.7051722424944296,1.36645219423513,-0.9361759037362867,-0.2920925519971386,-0.8692295070293579,0.1815538440872283,0.18460424020126553,0.46936692882693704,1.1723214615872586,0.0
0.8611481975967957,0.35172590535562764,1.6275795477338413,1.3490739599072106,-0.8689117163959693,-0.30701119736783783,-0.7459322685349616,0.209969516399169,0.2133309910107756,0.4679068379192454,1.1762475277228392,0.0
0.8811748998664887,0.38239759782526056,1.533584623481646,1.333820773846978,-0.7626593030116207,-0.31922012474863876,-0.6104463690400475,0.225848518959526,0.22929628383897915,0.46641390769864727,1.1801612242000974,0.0
0.9012016021361816,0.41096495254353627,1.4283677359137852,1.3211082861843761,-0.6356243831300966,-0.32865531633210704,-0.47175957917340827,0.23412796225059657,0.23759025727212837,0.46488824294412573,1.184062276342339,0.0
0.9212283044058746,0.43728057482994587,1.31578111432048,1.3111372347273258,-0.4985525728525121,-0.3353096861201426,-0.3327184894017787,0.2355617690051337,0.2388269812807998,0.4633299507320861,1.1879504103602934,0.0
0.9412550066755675,0.46127709650859555,1.1998260839324841,1.3039172084557982,-0.36100131357637666,-0.3393448492005412,-0.2017581540199298,0.23233236923265263,0.23539816519921036,0.4617391404288412,1.1918253533713281,0.0
0.9612817089452603,0.48295018736619033,1.0836545428797397,1.2993336308085102,-0.22917888236439657,-0.34092351604322507,-0.07893334213418822,0.22416390677180484,0.22693965620445597,0.4601159236829352,1.1956868334186013,0.0
0.9813084112149533,0.5023621639803323,0.9705988307070972,1.29713968458437,-0.10969731120701652,-0.34028022348586057,0.03216462786822186,0.2129625719911212,0.21542273488657762,0.4584604144173082,1.1995345794901475,0.0
1.0013351134846462,0.5196214586120357,0.8629647315851716,1.2970103951768928,-0.006464470373854211,-0.33766933220640855,0.13054456397259742,0.20054647570026396,0.20266617908734952,0.45677272882130043,1.2033683215379,0.0
1.0213618157543392,0.5348613600404932,0.7619950714228789,1.298592304623941,0.0790954723524051,-0.33336504538018463,0.2152143413111989,0.14254764073703194,0.13550081220790536,0.45505298534249783,1.2071877904966422,0.0
1.041388518024032,0.5487150720073282,0.6926855983417481,1.3001385994307824,0.07731474034207546,-0.33470235365980033,-0.06686541398078846,0.05978743097388524,0.05632338345953773,0.45330130467841884,1.2109927183028915,0.0
1.061415220293725,0.5619870974725298,0.6636012732600857,1.299388254497505,-0.037517246663860304,-0.338809756090527,-0.20537012153633227,0.0984078055886351,0.09630297007684813,0.4515178097680436,1.2147828379137142,0.0
1.081441922563418,0.5742938902148912,0.6153396371180674,1.2974434408140647,-0.09724068417201748,-0.34459705197459256,-0.289364794203278,0.121490443562957,0.1220311832659367,0.44970262578318554,1.2185578833254664,0.0
1.101468624833111,0.5853856225145866,0.5545866149847728,1.2949837840681064,-0.12298283729791878,-0.34994579379228763,-0.2674370908847542,0.1532571500666833,0.15530425115794633,0.44785588011970645,1.2223175895924638,0.0
1.1214953271028039,0.594919182684054,0.476678008473368,1.292909754848819,-0.10370146096436371,-0.3536514548082603,-0.18528305079863172,0.16973904503622722,0.17294194359977685,0.4459777023885754,1.2260616928455754,0.0
1.1415220293724968,0.6027008456362819,0.3890831476113943,1.2916872541042095,-0.0611250372304842,-0.3547913007604795,-0.056992297610959114,0.17728862486004926,0.181022659890905,0.44406822440677224,1.229789930310744,0.0
1.1615487316421895,0.6086354259360338,0.2967290149875957,1.2915259234813732,-0.008066531141811065,-0.35294295678189813,0.09241719892907208,0.1755715060943293,0.17942631155054206,0.44212758018803616,1.2335020403274277,0.0
1.1815754339118825,0.6127368218701665,0.20506979670663603,1.2923764373040016,0.04252569113141784,-0.34801238903629544,0.2465283872801354,0.16791407643699702,0.17157870481641715,0.4401559059334601,1.2371977623669645,0.0
1.2016021361815754,0.6150957404187537,0.11794592742935757,1.2940256286724434,0.0824595684220926,-0.3401550710966795,0.39286589698079377,0.15674240807925893,0.16004116977327817,0.4381533400219318,1.2408768370508576,0.0
1.2216288384512684,0.6158520156410902,0.03781376111682315,1.2961650613941738,0.10697163608651433,-0.329667580616241,0.5243745240219235,0.1447529565238658,0.1476128634148437,0.43612002300042185,1.244539006168978,0.0
1.2416555407209613,0.6151625361899101,-0.034473972558999894,1.2984657604990804,0.1150349552453285,-0.31690507993378236,0.6381250341229249,0.13371987362210452,0.13612682172475243,0.4340560975741196,1.2481840126976884,0.0
1.2616822429906542,0.6131794956967256,-0.09915202465922941,1.300626849173584,0.10805443372517845,-0.3022339028430494,0.7335588545366508,0.12445715014812578,0.1264403174468439,0.43196170859641764,1.2518116008178803,0.0
1.2817089452603472,0.6100399559473438,-0.15697698746909006,1.3023978648398697,0.08855078331428697,-0.28599670933448457,0.8118596754282427,0.1174973588247607,0.11909713357762769,0.42983700305874556,1.2554215159329298,0.0
1.3017356475300401,0.6058600738125168,-0.20899410674135194,1.3035934394052238,0.05977872826770436,-0.26850340034229736,0.874665449609361,0.11287161349824407,0.11413026354713171,0.4276821300802533,1.2590135046865651,0.0
1.321762349799733,0.6007355163089735,-0.2562278751771694,1.3040942388600327,0.02503997274044511,-0.25002956065480897,0.9236919843744212,0.11044026133120996,0.11139307325109479,0.4254972408973459,1.262587314980648,0.0
1.341789052069426,0.5947442636751756,-0.29956263168989145,1.303843198619201,-0.012552012041594167,-0.23082203188024986,0.9603764387279523,0.10996341734202837,0.1106434774751962,0.4232824888530689,1.266142695992867,0.0
1.361815754339119,0.587950569437229,-0.3396847118973309,1.302839043828403,-0.05020773953990188,-0.21110067854248848,0.9860676668880697,0.11115923330492904,0.11159002297664672,0.42103802938634616,1.2696793981943417,0.0
1.3818424566088119,0.580409212060952,-0.37706786881385246,1.301128437059218,-0.08553033845924875,-0.1910660948373666,1.001729185256092,0.11365365298689925,0.11385340884640927,0.4187640200210709,1.2731971733671346,0.0
1.4018691588785048,0.5721699836818034,-0.4119614189574291,1.298795381290164,-0.11665278845270118,-0.17090382156314635,1.008113663711013,0.11713205595330414,0.11711573380382695,0.4164606203550497,1.276695774621672,0.0
1.4218958611481975,0.5632811319585839,-0.44444258616097326,1.2959521766872197,-0.14216023014721554,-0.1507869938629423,1.0058413850102028,0.12133764633275183,0.12111915074927775,0.4141279920488021,1.2801749564140723,0.0
1.4419225634178905,0.5537918151170028,-0.474465842079054,1.2927319310382022,-0.16101228245088134,-0.13087720819351006,0.9954892834716107,0.12590037734388942,0.1254936887265364,0.4117662988142137,1.283634474563378,0.0
1.4619492656875834,0.5437544345176737,-0.5018690299664562,1.289277649242266,-0.17271408979681377,-0.11132449274605512,0.9776357723727481,0.13060417638062277,0.1300225491875463,0.40937570640304727,1.287074086268695,0.0
1.4819759679572764,0.5332254523581048,-0.5264491079784425,1.285735713025192,-0.17709681085369836,-0.09226792463036615,0.9528284057844473,0.13518063172331693,0.13443872435296117,0.4069563825953091,1.2904935501262298,0.0
1.5020026702269693,0.5222658196602982,-0.5479816348903309,1.2822478192598157,-0.17439468826882068,-0.0738345460092922,0.9216689310536985,0.13947298813036726,0.13858611073571747,0.4045084971874737,1.2938926261462367,0.0
1.5220293724966623,0.5109404477861346,-0.5662685937081822,1.2789461919472567,-0.1650813656279524,-0.05613888704687826,0.8847829481206967,0.20185080974434116,0.1922447968745482,0.4020322219805673,1.2972710757698567,0.0
1.5420560747663552,0.49919879235013864,-0.5870827717997971,1.2775513102617286,-0.06974408427639717,-0.04615351719540524,0.49926849257365113,0.18143221143719662,0.1764446949183591,0.3995277307681099,1.3006286618858631,0.0
1.5620827770360481,0.48717459834221644,-0.601209700396111,1.2775317318696922,-0.0009789196018245294,-0.040169938243368494,0.2991789476018374,0.16950977417881416,0.16669851025635624,0.3969951993239177,1.3039651488473027,0.0
1.582109479305741,0.4749360041844262,-0.6119297078895098,1.2785677379856388,0.05180030579733059,-0.036441549160206865,0.1864194541580811,0.16007776269105364,0.15871625518973542,0.39443480538976705,1.3072803024880322,0.0
1.602136181575434,0.46252354710443405,-0.620622853999607,1.280401470692293,0.09168663533270613,-0.03380589725423842,0.1317825952984221,0.1521328193015945,0.15170430014889685,0.39184672866291986,1.3105738901391553,0.0
1.622162883845127,0.44996325194049197,-0.6280147581971043,1.2828111182486817,0.12048237781942811,-0.031515445867628146,0.11452256933051425,0.14547645933629347,0.14562747846760415,0.3892311507835117,1.3138456806453502,0.0
1.64218958611482,0.4372736652654413,-0.6344793337525323,1.2856077922072189,0.13983369792686254,-0.029106221700643614,0.12046120834922593,0.1399843708971144,0.14047002425906308,0.38658825532180363,1.3170954443810947,0.0
1.6622162883845129,0.42446990463810547,-0.6401880313667911,1.2886335919518572,0.15128998723191994,-0.02631063552539147,0.13977930876260758,0.13562774948393486,0.13628124049078402,0.3839182277652987,1.3203229532667808,0.0
1.6822429906542056,0.41156589359668394,-0.6452005520710765,1.2917619538369842,0.15641809425635392,-0.02299480766851627,0.16579139284376038,0.1323741706060756,0.1330852527488154,0.38122125550572394,1.3235279807847222,0.0
1.7022696929238985,0.3985755984965118,-0.6495147550086063,1.294897522581671,0.15677843723434287,-0.01911320967549574,0.19407989965102648,0.13014256564250506,0.13083606883731624,0.37849752782587825,1.3267103019950528,0.0
1.7222963951935915,0.3855137412518282,-0.6530928622341813,1.2979742347988628,0.15383561085958367,-0.014680521256602127,0.22163442094468025,0.1288285073277266,0.1294585629399076,0.37574723588634806,1.329869693551513,0.0
1.7423230974632844,0.3723962129763237,-0.6558764137752258,1.3009526103527629,0.14891877769500533,-0.009748125399574856,0.2466197928513636,0.1281153591974868,0.12866204199430958,0.3729705727120911,1.3330059337171258,0.0
1.7623497997329773,0.3592403923833458,-0.6577910296488924,1.3038107004011568,0.14290450241969402,-0.0043833076828051504,0.2682408858384852,0.12807361378841153,0.1285259851434243,0.37016773317888907,1.336118802379758,0.0
1.7823765020026703,0.3460651242877742,-0.65876340477858,1.3065462597949804,0.13677796969118594,0.0013379588052414692,0.28606332440233095,0.12879992914179203,0.12912344500474912,0.3673389139996707,1.339208081067569,0.0
1.8024032042723632,0.3328907390539416,-0.6587192616916282,1.3091792086417062,0.13164744233628778,0.007312147419153676,0.2987094306956103,0.12993610381434123,0.13014316326363337,0.3644843137107058,1.3422735529643444,0.0
