time,x,x_dot,z,z_dot,theta,theta_dot,u1,u2,x_ref,z_ref,theta_ref
0.0,0.40830606322713914,0.03233374416049481,0.5689932362320225,0.040560329421943764,-0.07241511435430968,-0.00998086515792855,0.2966766700760024,0.29668288663542425,0.5,1.0,0.0
0.020026702269692925,0.40831618421460975,0.0005060493735313809,0.5746512337170345,0.28289987425060253,-0.07260959712220923,-0.009724138394977573,0.28273276484727605,0.29668288667469717,0.4999824541392403,1.0041887412073853,0.0
0.04005340453938585,0.4077052312747087,-0.03054764699505279,0.5849448628372228,0.5146814560094113,-0.06164382554007637,0.5482885791066421,0.28994425904952636,0.29668288667476883,0.4999298177883902,1.0083771884344908,0.0
0.06008010680907877,0.40646453994282644,-0.06203456659411302,0.5999738842925545,0.7514510727665864,-0.045301058520311875,0.8171383509882244,0.2940744027358599,0.2966828866534262,0.49984209464164997,1.0125650477216688,0.0
0.0801068090787717,0.40468642688818823,-0.08890565273191113,0.6197971534914917,0.9911634599468595,-0.026895540690580814,0.9202758914865532,0.2966736988258567,0.2966828559010147,0.49971929085573213,1.0167520251505358,0.0
0.10013351134846463,0.4025130706121986,-0.10866781379948251,0.6444502316718111,1.2326539090159714,-0.008510973378614999,0.9192283655982909,0.2666623116255605,0.2648989578175057,0.4995614150494292,1.0209378268645999,0.0
0.12016021361815754,0.40013182817177023,-0.1190621220214185,0.6730113158113188,1.4280542069753808,0.008434921934378135,0.8472947656496567,0.21890896890061998,0.21635426429528976,0.49936847830300873,1.0251221590898847,0.0
0.14018691588785048,0.3977003395753329,-0.12157442982186722,0.7040449191023732,1.5516801645527214,0.023312303752707274,0.7438690909164567,0.1800813809321932,0.17742822551908297,0.499140494157436,1.0293047281555483,0.0
0.1602136181575434,0.3953184982504139,-0.11909206624595273,0.7363913042690057,1.6173192583316232,0.03604664076767662,0.6367168507484671,0.14777622139839838,0.14522485031874444,0.4988774786134233,1.0334852405144925,0.0
0.1802403204272363,0.3930428363716105,-0.11378309394016728,0.7690894246237585,1.6349060177376413,0.04672337240942016,0.5338365820871768,0.12281602949299521,0.12044846459796112,0.49857945013030697,1.0376634027639664,0.0
0.20026702269692925,0.39090185963812707,-0.10704883667417171,0.8014000936433616,1.6155334509801562,0.055493058999098246,0.4384843294839055,0.1032457815524866,0.10112624380129052,0.4982464296247522,1.0418389216661577,0.0
0.22029372496662217,0.3889067832730354,-0.09975381825458204,0.832747492808222,1.5673699582430203,0.06255708854549767,0.3532014773199712,0.08897523463225249,0.08710024124385816,0.4978784404692846,1.0460115041687736,0.0
0.24032042723631508,0.38706049042818963,-0.09231464224228822,0.8627149383001821,1.498372274598003,0.06811351356227567,0.27782125083889914,0.078982945673534,0.07732651293076845,0.4974755084906501,1.0501808574256075,0.0
0.260347129506008,0.3853626606751196,-0.08489148765350256,0.8910135858652584,1.414932378253816,0.07233913274673179,0.21128095922280524,0.07279455396008763,0.07134697173147082,0.4970376619680023,1.0543466888170925,0.0
0.28037383177570097,0.38381345369083736,-0.07746034921411254,0.9174679826885757,1.3227198411658647,0.07540260175785213,0.15317345055601791,0.069694715807011,0.06841495379623128,0.4965649316309177,1.0585087059708387,0.0
0.30040053404539385,0.38241501002894845,-0.06992218309444623,0.9419938926557805,1.2262954983602403,0.07743943979564986,0.10184190188988534,0.06905969479549459,0.06792510875228813,0.49605735065723894,1.0626666167821521,0.0
0.3204272363150868,0.3811719366919542,-0.06215366684971197,0.9645797200915733,1.1292913717896411,0.078566815462951,0.05636878336505642,0.06997384877495509,0.0689584777038114,0.49551495467074635,1.066820129434536,0.0
0.34045393858477974,0.3800902135324795,-0.05408615797373485,0.9852591314274634,1.0339705667944996,0.0788809420499936,0.015706329352130496,0.07208554876290799,0.07117489276535245,0.4949377817386579,1.0709689524201722,0.0
0.3604806408544726,0.37917682864963254,-0.04566924414235006,1.0041007001615563,0.9420784367046487,0.07846628862665116,-0.020732671167123372,0.07492853683786288,0.07409917185883338,0.49432587236895703,1.0751127945603784,0.0
0.38050734312416556,0.37843883787536264,-0.03689953871349416,1.0211939314989928,0.8546615668718321,0.07738848187735421,-0.05389033746484788,0.07876335206095154,0.0780246875793897,0.49367926950755014,1.0792513650260465,0.0
0.4005340453938585,0.37788401595777565,-0.027741095879350114,1.0366574290148927,0.7731748757949861,0.07572065259811536,-0.0833914639619421,0.08268820433794144,0.08202962236348246,0.49299801853525244,1.083384373358051,0.0
0.4205607476635514,0.3775186411870909,-0.018268738534239538,1.05061194519106,0.697725808808367,0.07352740400165947,-0.10966242982279531,0.08697156106199022,0.08637816667921627,0.49228216726460267,1.087511529487638,0.0
0.44058744993324434,0.37734803850481613,-0.008530134113738888,1.0631882911984192,0.6288173003679587,0.07086138805316515,-0.133300797424715,0.09152074974094379,0.09100262517495346,0.4915317659365077,1.09163254375678,0.0
0.4606141522029373,0.3773763008123611,0.0014131153772494864,1.0745249928347809,0.5668350818180795,0.06778329104328135,-0.15390485049419012,0.09573699826836493,0.09529036347058924,0.49074686721671645,1.0957471269385064,0.0
0.48064085447263016,0.37760490011366754,0.01142996506532009,1.0847504169446767,0.511271205494788,0.06435072935265708,-0.1716280845312129,0.09995854002634669,0.09958226804303741,0.48992752619212343,1.0998549902572035,0.0
0.5006675567423231,0.3780334478660408,0.021427387618663626,1.0939928488689434,0.46212159621334264,0.060620369197221476,-0.18651800777178115,0.10375235003772096,0.10344041931228334,0.48907380036690284,1.1039558454088796,0.0
0.520694259012016,0.3786588838910941,0.03127180125266277,1.1023676355051923,0.4187393318124489,0.056644007109234173,-0.19881810439936468,0.10725315438898364,0.1070006722517113,0.48818574965847245,1.108049404581401,0.0
0.540720961281709,0.37947590861875524,0.04085123638305719,1.1099812093744763,0.38067869346419553,0.05246947445607418,-0.20872663265799882,0.1104375688244397,0.11024136107383635,0.48726343639328856,1.1121353804746905,0.0
0.5607476635514019,0.3804771177072,0.05006045442223869,1.1169304344206474,0.3474612523085527,0.04814201366507999,-0.21637303954971004,0.11336047119289054,0.11321571470809476,0.48630692530247177,1.116213486320892,0.0
0.5807743658210948,0.38165328730589493,0.058808479934745486,1.1233042132152684,0.31868893973104817,0.04370295981579911,-0.22195269246404337,0.11596506653375568,0.11586874188915364,0.4853162835172637,1.1202834359044958,0.0
0.6008010680907877,0.38299349453176224,0.06701036129336614,1.129181836179832,0.29388114822818046,0.03919118646101938,-0.22558866773898711,0.11830270293276533,0.11825052782905653,0.48429158056431554,1.1243449435824273,0.0
0.6208277703604806,0.38448541435280137,0.07459599105195745,1.1346344858601187,0.2726324840143372,0.034642097110641576,-0.22745446751889026,0.12038170739656134,0.1203700928881523,0.4832328883608088,1.128397724304094,0.0
0.6408544726301736,0.38611555044400425,0.08150680456014411,1.1397254950105513,0.25455045752162453,0.030088183289614746,-0.22769569105134158,0.12222890991599096,0.12225433141854208,0.48214028120940733,1.1324414936313905,0.0
0.6608811748998665,0.38786948154099715,0.0876965548496446,1.1445111436115711,0.23928243005099442,0.025559079115951802,-0.2264552086831473,0.12385352026082305,0.12391238365276695,0.48101383579304297,1.1364759677586627,0.0
0.6809078771695595,0.38973207710908,0.09312977840414263,1.1490409326206659,0.2264894504547356,0.02108150896748817,-0.2238785074231815,0.12528384391655453,0.1253721547111669,0.47985363116953333,1.1405008635326255,0.0
0.7009345794392524,0.3916877190158225,0.09778209533712538,1.1533584197029323,0.21587435411332365,0.0166789707479094,-0.22012691097893886,0.1265309281576312,0.12664568558168995,0.4786597487660336,1.144515898472236,0.0
0.7209612817089452,0.3937204915606475,0.10163862724125025,1.1575015654459078,0.2071572871487712,0.012372534902062556,-0.215321792292342,0.12761850664481314,0.12775674540244225,0.4774322723733215,1.1485207907885173,0.0
0.7409879839786382,0.3958143618838349,0.10469351615937025,1.161503442694889,0.20009386244905336,0.008180876001014793,-0.20958294505238817,0.1285624147048885,0.12872114480797647,0.4761712881399164,1.1525152594043386,0.0
0.7610146862483311,0.39795333688058177,0.10694874983734473,1.1653927120064336,0.1944634655772275,0.004120256194087488,-0.20303099034636518,0.12937324179857165,0.12954997355001613,0.47487688456603344,1.156499023974139,0.0
0.7810413885180241,0.4001216015987847,0.10841323591014715,1.1691939505033773,0.19006192484718826,0.00020492866377823978,-0.19576637651546241,0.1300694981775964,0.1302617360043034,0.47354915249737217,1.1604718049036047,0.0
0.801068090787717,0.4023036429485312,0.10910206748732704,1.1729282089041313,0.18671292003770307,-0.0035528643304227644,-0.18788964971005026,0.13066142954697912,0.1308667689476037,0.4721881851187405,1.1644333233692916,0.0
0.82109479305741,0.40448435516283426,0.10903561071515203,1.1766133256134286,0.18425583546486568,-0.007142815889319446,-0.17949757794483398,0.13115808219900152,0.13137439180096794,0.4707940779475151,1.1683833013381941,0.0
0.8411214953271028,0.40664913091952654,0.10823878783461494,1.18026420847925,0.1825441432910722,-0.010556333410480323,-0.1706758760580439,0.1315697663163489,0.13179457773212927,0.46936692882693704,1.1723214615872586,0.0
0.8611481975967957,0.4087839384811344,0.10674037808039337,1.1838931452564174,0.1814468388583636,-0.013786805948805905,-0.16152362691627897,0.13191631488518746,0.13214754940982204,0.4679068379192454,1.1762475277228392,0.0
0.8811748998664887,0.4108753824562928,0.1045721987579191,1.1875104070069322,0.18086308752574423,-0.016829290016607663,-0.1521242033900882,0.13219434776186154,0.13243032577846328,0.46641390769864727,1.1801612242000974,0.0
0.9012016021361816,0.41291075611716577,0.1017686830436498,1.1911241633348615,0.18068781639646272,-0.019680188289315653,-0.14254491363539945,0.13239963957722478,0.13263868073919274,0.46488824294412573,1.184062276342339,0.0
0.9212283044058746,0.41487808682755195,0.09836653551931032,1.1947403667385759,0.18081017018572243,-0.02233724858618478,-0.13285301484345607,0.1325610474753302,0.13280216913989848,0.4633299507320861,1.1879504103602934,0.0
0.9412550066755675,0.4167661558499818,0.0944034511214915,1.1983636273254574,0.18116302934408307,-0.024799004185363023,-0.12308777995891197,0.13268286023351036,0.1329236907409936,0.4617391404288412,1.1918253533713281,0.0
0.9612817089452603,0.41856451805956824,0.08991811047932222,1.2019973274035962,0.18168500390694153,-0.027065884148295576,-0.11334399814662799,0.1327687599397545,0.13300882133484937,0.4601159236829352,1.1956868334186013,0.0
0.9813084112149533,0.42026351520769584,0.0849498574063788,1.2056437661922756,0.18232193943397593,-0.029138696434881848,-0.10364061432931308,0.13280132571986947,0.13303917714236363,0.4584604144173082,1.1995345794901475,0.0
1.0013351134846462,0.4218542971038989,0.0795390948101513,1.2093036364259577,0.18299351168410163,-0.03101939788042952,-0.0940350722773835,0.13282987267378638,0.13306490932053286,0.45677272882130043,1.2033683215379,0.0
1.0213618157543392,0.42332878605993596,0.07372444780185466,1.2129775043197348,0.1836933946888561,-0.03271042429847659,-0.08455132090235355,0.08511409712743301,0.0844329549386044,0.45505298534249783,1.2071877904966422,0.0
1.041388518024032,0.4247239596586642,0.06975867993641356,1.215238451208376,0.11304734443206359,-0.034944896484561644,-0.11172360930425317,0.09871662172296991,0.09821893510115856,0.45330130467841884,1.2109927183028915,0.0
1.061415220293725,0.42602245112057807,0.06492457309569162,1.2164933521559285,0.06274504737761663,-0.03757552968180069,-0.13153165986195176,0.11091171209934216,0.1107766739616458,0.4515178097680436,1.2147828379137142,0.0
1.081441922563418,0.4272050647957399,0.059130683758091794,1.2171094258419801,0.03080368430258476,-0.040311811699653685,-0.13681410089265036,0.12051763407560563,0.120639262240841,0.44970262578318554,1.2185578833254664,0.0
1.101468624833111,0.42825245499166753,0.05236950979638098,1.2173751466852785,0.01328604216492051,-0.04294830303445193,-0.1318245667399122,0.1277316344338007,0.12802745146120897,0.44785588011970645,1.2223175895924638,0.0
1.1214953271028039,0.4291462609680777,0.044690298820507304,1.2175065887168617,0.006572101579156305,-0.04534575433334621,-0.11987256494471436,0.13293741902770845,0.13334621497908558,0.4459777023885754,1.2260616928455754,0.0
1.1415220293724968,0.4298699430867881,0.03618410593552303,1.2176592257948495,0.007631853899397964,-0.04741402193910448,-0.10341338028791418,0.13656830392355734,0.13704265707756516,0.44406822440677224,1.229789930310744,0.0
1.1615487316421895,0.43040927901520293,0.026966796420742303,1.2179410652053133,0.014091970523189168,-0.04910098211003891,-0.08434800854672034,0.13895920567865677,0.13946619739774702,0.44212758018803616,1.2335020403274277,0.0
1.1815754339118825,0.43075266927327077,0.017169512903392126,1.2184228574556244,0.024089612515554148,-0.050380886081338054,-0.06399519856495736,0.14036517428952333,0.14087956412760178,0.4401559059334601,1.2371977623669645,0.0
1.2016021361815754,0.4308912752899127,0.006930300832097469,1.2191458199687024,0.03614812565389837,-0.05124818906991462,-0.04336514942882876,0.14103346563259542,0.14153852102503459,0.4381533400219318,1.2408768370508576,0.0
1.2216288384512684,0.43081894848334945,-0.0036163403281635094,1.2201291227594122,0.04916513953549118,-0.051710723965550175,-0.02312674478177736,0.14117637174141717,0.14165952229421816,0.43612002300042185,1.244539006168978,0.0
1.2416555407209613,0.43053203819226377,-0.014345514554283704,1.2213762602538534,0.06235687472205556,-0.051786359874841495,-0.0037817954645663274,0.14093890009517301,0.14139211663720153,0.4340560975741196,1.2481840126976884,0.0
1.2616822429906542,0.4300291789956906,-0.025142959828659616,1.2228794269311913,0.07515833386689365,-0.05149936181398936,0.014349903042605642,0.1404448290585271,0.14086298932866984,0.43196170859641764,1.2518116008178803,0.0
1.2817089452603472,0.4293110295634206,-0.0359074716134995,1.2246232319674022,0.08719025181054021,-0.05087806844395925,0.03106466850150579,0.13978669573928584,0.14016690437261972,0.42983700305874556,1.2554215159329298,0.0
1.3017356475300401,0.4283800116449558,-0.04655089592324036,1.2265874724571808,0.09821202448892853,-0.04995312070086972,0.04624738715447736,0.13904531223206265,0.13938590279060006,0.4276821300802533,1.2590135046865651,0.0
1.321762349799733,0.42724004272771493,-0.05699844586204328,1.2287495399861668,0.10810337644929399,-0.04875647480681448,0.05983229470276136,0.13827172324283094,0.1385723688992201,0.4254972408973459,1.262587314980648,0.0
1.341789052069426,0.42589630500516934,-0.06718688612728074,1.2310859443692255,0.1168202191529404,-0.04732032715500147,0.07180738259065042,0.13750555783292587,0.1377666992000791,0.4232824888530689,1.266142695992867,0.0
1.361815754339119,0.4243550317639492,-0.07706366206100809,1.233573488986045,0.12437723084097956,-0.04567649804380661,0.08219145555974368,0.1367744774339411,0.13699715248487498,0.42103802938634616,1.2696793981943417,0.0
1.3818424566088119,0.42262331819199056,-0.08658567859793197,1.2361900882524854,0.1308299633220157,-0.04385595228277031,0.09102728805181462,0.1360991644953769,0.1362848004536309,0.4187640200210709,1.2731971733671346,0.0
1.4018691588785048,0.4207089522284328,-0.09571829817788914,1.2389153750344528,0.13626433909836858,-0.041888487013286554,0.09837326347418819,0.13548443280634295,0.13563488394971643,0.4164606203550497,1.276695774621672,0.0
1.4218958611481975,0.41862027819855363,-0.10443370149395771,1.241730838981874,0.1407731973710625,-0.03980238987101803,0.10430485711342598,0.13493801950123577,0.1350552662217059,0.4141279920488021,1.2801749564140723,0.0
1.4419225634178905,0.41636606720478453,-0.11271054968845631,1.2446200475988238,0.1444604308474873,-0.03762433850619119,0.10890256824134174,0.13446121046950701,0.13454726614477802,0.4117662988142137,1.283634474563378,0.0
1.4619492656875834,0.41395540699427125,-0.12053301052566437,1.2475686756983904,0.14743140497832138,-0.03537937496180212,0.11224817721945406,0.13405075841093006,0.13410780356203097,0.40937570640304727,1.287074086268695,0.0
1.4819759679572764,0.41139760688631866,-0.12789000539762935,1.250564403581459,0.1497863941534313,-0.033090772976775595,0.11443009925132608,0.13370195239329666,0.13373213301982925,0.4069563825953091,1.2904935501262298,0.0
1.5020026702269693,0.408702112674734,-0.13477471057923296,1.253596769959735,0.1516183189138069,-0.03078006694325796,0.11553530167588182,0.13340870931266768,0.13341420401602605,0.4045084971874737,1.2938926261462367,0.0
1.5220293724966623,0.40587843059932127,-0.1411841037706364,1.256656986345322,0.15301081927934898,-0.02846702729806463,0.11565198225966673,0.15048590755917088,0.1486225081896494,0.4020322219805673,1.2972710757698567,0.0
1.5420560747663552,0.4029211055728758,-0.14786625132227332,1.2602233817103128,0.17831976824953819,-0.02764676759846803,0.041012984979830025,0.14375245057126362,0.14291455589129948,0.3995277307681099,1.3006286618858631,0.0
1.5620827770360481,0.3998458136409737,-0.15376459659510522,1.2641114609699815,0.1944039629834376,-0.02749750653812323,0.007463053017239568,0.13971387633471988,0.1393197062402212,0.3969951993239177,1.3039651488473027,0.0
1.582109479305741,0.39665931924298825,-0.1593247198992721,1.2682079099148023,0.2048224472410361,-0.027663701849864865,-0.008309765587081748,0.13656605243693842,0.13646592603807314,0.39443480538976705,1.3072803024880322,0.0
1.602136181575434,0.39336482439005716,-0.16472474264655418,1.2724236203894341,0.2107855237315914,-0.027909864218510817,-0.012308118432297007,0.13416530816478625,0.13425250602546382,0.39184672866291986,1.3105738901391553,0.0
1.622162883845127,0.3899636778512155,-0.17005732694208214,1.2766900947954496,0.21332372030077504,-0.02808606894700131,-0.008810236424524262,0.13235943743194223,0.1325592998277292,0.3892311507835117,1.3138456806453502,0.0
1.64218958611482,0.38645647029040026,-0.1753603780407616,1.280955418395916,0.21326618002331535,-0.028102241555640513,-0.0008086304319607392,0.13101524526961114,0.1312775148907612,0.38658825532180363,1.3170954443810947,0.0
1.6622162883845129,0.38284372015714435,-0.18063750666279438,1.2851806737473004,0.2112627675692195,-0.027908585518838368,0.009682801840107658,0.13005441968525389,0.13034375058334743,0.3839182277652987,1.3203229532667808,0.0
1.6822429906542056,0.379126266412107,-0.18587268725186723,1.2893378368009245,0.20785815268120933,-0.027483621192834023,0.02124821630021733,0.12939872023411209,0.12969123271976452,0.38122125550572394,1.3235279807847222,0.0
1.7022696929238985,0.3753055063374649,-0.19103800373210436,1.2934076217042392,0.20348924516572905,-0.02682499409467848,0.03293135490777684,0.12898711826251086,0.12926698900373454,0.37849752782587825,1.3267103019950528,0.0
1.7222963951935915,0.3713835172721975,-0.19609945326337197,1.297377783926558,0.1985081111159367,-0.02594301470535854,0.0440989694659973,0.12877215522356822,0.12902938707853354,0.37574723588634806,1.329869693551513,0.0
1.7423230974632844,0.3673631013621596,-0.2010207955018934,1.3012417918186692,0.19320039460556,-0.024855986611106006,0.05435140471262668,0.12870943360175693,0.12893791151359557,0.3729705727120911,1.3330059337171258,0.0
1.7623497997329773,0.3632477852146591,-0.2057658073750255,1.3049975599226027,0.18778840519667747,-0.023587093183031135,0.06344467140374367,0.12875559817652224,0.12895200610004004,0.37016773317888907,1.336118802379758,0.0
1.7823765020026703,0.3590417907972537,-0.21029972087027202,1.3086461975113186,0.18243187943579955,-0.02216215306097542,0.07124700610278567,0.12889787827773272,0.12906108785989012,0.3673389139996707,1.339208081067569,0.0
