time,x,x_dot,z,z_dot,theta,theta_dot,u1,u2,x_ref,z_ref,theta_ref
0.0,-0.9919435130139129,0.07443538285410847,0.7427423876044142,0.03021225957233703,-0.0063630468120141614,0.057706698833507236,0.296418517707253,0.29668288559197625,0.5,1.0,0.0
0.020026702269692925,-0.9905120017232506,0.07157556453311589,0.7482126201445901,0.2735116270087928,-0.004998395115734382,0.06823258481398899,0.21184207054534004,0.2966828866746746,0.4999824541392403,1.0041887412073853,0.0
0.04005340453938585,-0.9891298963990777,0.0691052662086452,0.7572907898120207,0.45390848337152706,0.06423768007297476,3.461803759435457,0.05632337987944028,0.056795401610112456,0.4999298177883902,1.0083771884344908,0.0
0.06008010680907877,-0.9877577808662862,0.06860577663957386,0.7641141752973337,0.341169274265649,0.13360333370900004,3.4682826818012646,0.28165106538031504,0.2966828866360006,0.49984209464164997,1.0125650477216688,0.0
0.0801068090787717,-0.9858371407801728,0.09603200430566675,0.7755604412747621,0.5723132988714164,0.21471756886663768,4.0557117578818795,0.2910271800309752,0.2966828866747982,0.49971929085573213,1.0167520251505358,0.0
0.10013351134846463,-0.9827591268298065,0.15390069751831847,0.7917014599365836,0.8070509330910751,0.3000134206200836,4.264792587672298,0.29668288667474213,0.2928850629659092,0.4995614150494292,1.0209378268645999,0.0
0.12016021361815754,-0.9778245595449265,0.24672836424400033,0.8124327266427007,1.0365633353058556,0.3819228069886799,4.095469318429816,0.29668288666445103,0.28653221410605717,0.49936847830300873,1.0251221590898847,0.0
0.14018691588785048,-0.9703446747523367,0.37399423962949196,0.8374640233503143,1.2515648353806794,0.455404987623104,3.6741090317212053,0.296682886347353,0.2821467351172033,0.499140494157436,1.0293047281555483,0.0
0.1602136181575434,-0.9596825467796453,0.5331063986345718,0.8664865414842354,1.4511259066960556,0.5170148581159159,3.080493524640587,0.2966828866743218,0.2797092077733387,0.4988774786134233,1.0334852405144925,0.0
0.1802403204272363,-0.9452863977594124,0.7198074510116448,0.8991988058599192,1.6356132187841868,0.5648704297137096,2.3927785798896903,0.29668288667471643,0.2784264280363601,0.49857945013030697,1.0376634027639664,0.0
0.20026702269692925,-0.9267109497873378,0.9287723986037305,0.9353246788509016,1.8062936495491209,0.5980076645790107,1.6568617432650536,0.29668288667467685,0.27885433166451,0.4982464296247522,1.0418389216661577,0.0
0.22029372496662217,-0.9036162671705944,1.1547341308371695,0.9746449083009272,1.96601147250128,0.6168194527256676,0.9405894073328551,0.29668288666001563,0.27811145780304625,0.4978784404692846,1.0460115041687736,0.0
0.24032042723631508,-0.875788000726713,1.3914133221940703,1.0169796477242252,2.116736971164902,0.6207475217923853,0.19640345333588383,0.28791509585628394,0.26795465005277214,0.4974755084906501,1.0501808574256075,0.0
0.260347129506008,-0.8432748448387917,1.6256577943960693,1.061992289874588,2.2506321075181406,0.6087035977655907,-0.6021962013397386,0.21177715442933423,0.19682683817242297,0.4970376619680023,1.0543466888170925,0.0
0.28037383177570097,-0.8073389980163594,1.7967923411216116,1.1078730404539157,2.2940375289663892,0.5847157255597596,-1.199393610291553,0.1495989620467438,0.13934452890924312,0.4965649316309177,1.0585087059708387,0.0
0.30040053404539385,-0.7690679807219066,1.9135508647226411,1.153201929044397,2.266444429524062,0.5525688739823089,-1.607342578872522,0.1011422025616885,0.0948673259865329,0.49605735065723894,1.0626666167821521,0.0
0.3204272363150868,-0.7293155833154462,1.9876198703230195,1.1968884165450882,2.18432437503456,0.5154717690371284,-1.8548552472590174,0.06495915763236956,0.061602869682766015,0.49551495467074635,1.066820129434536,0.0
0.34045393858477974,-0.6887047700805148,2.030540661746572,1.2381126945120116,2.061213898346172,0.4757762065732062,-1.9847781231961172,0.05850667882691195,0.056323374905397676,0.4949377817386579,1.0709689524201722,0.0
0.3604806408544726,-0.6473818560275117,2.06614570265015,1.2767687051019003,1.9328005294944348,0.4344301633896963,-2.0673021591755,0.05757765744832911,0.05632337490569316,0.49432587236895703,1.0751127945603784,0.0
0.38050734312416556,-0.605412642870392,2.0984606578559872,1.3128863100267931,1.805880246244635,0.39218300888701324,-2.112357725134151,0.05691838164756629,0.0563233749048812,0.49367926950755014,1.0792513650260465,0.0
0.4005340453938585,-0.5628638449209161,2.1274398974737943,1.3464968451029735,1.6805267538090192,0.3495654648412099,-2.1308772022901747,0.056357276051926954,0.0563233749184825,0.49299801853525244,1.083384373358051,0.0
0.4205607476635514,-0.5198033360242136,2.1530254448351265,1.3776301952985741,1.5566675097800267,0.3070275692565032,-2.126894779235332,0.05632337492170828,0.056323374910256165,0.49228216726460267,1.087511529487638,0.0
0.44058744993324434,-0.47629723842905625,2.175304879757867,1.4063203780440885,1.4345091372757235,0.26459608288831693,-2.1215743184093143,0.056323374905592666,0.05632337490565507,0.4915317659365077,1.09163254375678,0.0
0.4606141522029373,-0.43241226943625055,2.194248449640285,1.4325986011183234,1.3139111537117463,0.22227055894827327,-2.116276197002182,0.056323374908786895,0.056323374911150546,0.49074686721671645,1.0957471269385064,0.0
0.48064085447263016,-0.3882157647189907,2.2098252358629913,1.4564927973247161,1.1947098103196383,0.18005055342409512,-2.111000276208908,0.05632337522903999,0.05632337605841621,0.48992752619212343,1.0998549902572035,0.0
0.5006675567423231,-0.3437755507026614,2.222010700816464,1.478027644771256,1.0767423723269922,0.1379356254607046,-2.105746398169528,0.05632337490488171,0.05632337490488444,0.48907380036690284,1.1039558454088796,0.0
0.520694259012016,-0.29915981767584954,2.230786651340593,1.497224589459597,0.9598472344170532,0.0959253361236403,-2.1005144668532116,0.056323374926255367,0.05632337498237503,0.48818574965847245,1.108049404581401,0.0
0.540720961281709,-0.2544369941018562,2.236141178699667,1.5141018704748104,0.8438640507606641,0.05401924959212396,-2.095304326575817,0.056323374916693154,0.05632337498195076,0.48726343639328856,1.1121353804746905,0.0
0.5607476635514019,-0.2096756226053106,2.23806857482728,1.5286745479436186,0.7286338734404139,0.012216932731048883,-2.0901158430537543,0.056323374905175326,0.056518011284553665,0.48630692530247177,1.116213486320892,0.0
0.5807743658210948,-0.1649440823535986,2.236577012585601,1.5409574133455783,0.6141432700979902,-0.029326472371124814,-2.077170255108685,0.05632337509695781,0.057392084967498716,0.4853162835172637,1.1202834359044958,0.0
0.6008010680907877,-0.12031074527480731,2.231666853939564,1.550972209477805,0.5007398066113278,-0.0699133787082011,-2.029345316853814,0.0563233749048805,0.058006791692985886,0.48429158056431554,1.1243449435824273,0.0
0.6208277703604806,-0.07584444702578305,2.2233149124512135,1.5587337214087211,0.38807559654580864,-0.10905629981394963,-1.957146055287427,0.05632337490695364,0.05858873908966615,0.4832328883608088,1.128397724304094,0.0
0.6408544726301736,-0.03161293138021917,2.211575782278194,1.5642532532056148,0.27597658984468254,-0.1462957172145532,-1.8619708700301771,0.05632337490488497,0.05906069915082688,0.48214028120940733,1.1324414936313905,0.0
0.6608811748998665,0.012318284178367167,2.196560777929317,1.567537766771418,0.1642256782901691,-0.1812615314809,-1.7482907133173418,0.056323375511627805,0.059156388453080536,0.48101383579304297,1.1364759677586627,0.0
0.6809078771695595,0.05588754869788529,2.1784632259759062,1.568586401093038,0.05243171608099596,-0.21388544377544239,-1.6311956147271167,0.05632337504925743,0.059365925964933425,0.47985363116953333,1.1405008635326255,0.0
0.7009345794392524,0.09903703603028072,2.1574743666197707,1.5673982050484097,-0.05940980223141071,-0.24400793900951515,-1.5061247617036368,0.056323374916663844,0.05908814423447411,0.4786597487660336,1.144515898472236,0.0
0.7209612817089452,0.1417145809380529,2.1338772453886086,1.56396385119702,-0.17171769256948674,-0.27185923010027035,-1.3925645545377632,0.0563233749048809,0.05910560409525084,0.4774322723733215,1.1485207907885173,0.0
0.7409879839786382,0.18387175379281243,2.1078586427379764,1.558277529271552,-0.28431609627339427,-0.29743229275669725,-1.2786531328213457,0.056323374906149797,0.05903063136285205,0.4761712881399164,1.1525152594043386,0.0
0.7610146862483311,0.22546457640372997,2.0796411305458773,1.55033161625563,-0.3972956507961074,-0.32079364121425613,-1.1680674228779409,0.056323374914659885,0.059003501172339316,0.47487688456603344,1.156499023974139,0.0
0.7810413885180241,0.26645295761199855,2.0494190604134284,1.5401190464858119,-0.5106284884909008,-0.34197095504193065,-1.058865691383726,0.05632337511243961,0.05882297523289297,0.47354915249737217,1.1604718049036047,0.0
0.801068090787717,0.3068013964977243,2.017421944286287,1.5276307501458146,-0.6244148169998626,-0.36111415652053286,-0.9571600739301186,0.05632337509916866,0.05867151727396674,0.4721881851187405,1.1644333233692916,0.0
0.82109479305741,0.3464780865335023,1.9838345017888999,1.5128585235009182,-0.7386113322448223,-0.3783492157667754,-0.8617529623121204,0.05632348719587971,0.05878708204667884,0.4707940779475151,1.1683833013381941,0.0
0.8411214953271028,0.38545331703732927,1.9487615251913464,1.4957984849888741,-0.8530019256022038,-0.3935880219092676,-0.7619403071246136,0.11256325983203869,0.1149174249113812,0.46936692882693704,1.1723214615872586,0.0
0.8611481975967957,0.4230861735470201,1.8816428254845419,1.4779928648752318,-0.8902810056821178,-0.40692223476594214,-0.6667106428337266,0.155277654952844,0.15808646445292363,0.4679068379192454,1.1762475277228392,0.0
0.8811748998664887,0.4588458600658084,1.7879843259394148,1.4605986073962673,-0.8697128739482229,-0.4179918203643211,-0.5534792799189565,0.19236146470428928,0.19548131948518824,0.46641390769864727,1.1801612242000974,0.0
0.9012016021361816,0.4922459507832896,1.670004535874059,1.4446025675766074,-0.7998019909830001,-0.4265519179567029,-0.42800487961909095,0.21595520814420802,0.21930632070707506,0.46488824294412573,1.184062276342339,0.0
0.9212283044058746,0.5229523050521974,1.5353177134453906,1.4306161768928929,-0.6993195341857248,-0.43242144463097676,-0.2934763337136823,0.2295354117500737,0.2330577316269759,0.4633299507320861,1.1879504103602934,0.0
0.9412550066755675,0.5507572349503698,1.3902464949086188,1.41897901903585,-0.581857892852149,-0.435467090268111,-0.15228228185671297,0.2348348400845819,0.23839402057443804,0.4617391404288412,1.1918253533713281,0.0
0.9612817089452603,0.5755683778899722,1.2405571469801204,1.4098106811922013,-0.4584168921824353,-0.4356625971645318,-0.009775344821044224,0.2353201118269208,0.2387938145974999,0.4601159236829352,1.1956868334186013,0.0
0.9813084112149533,0.5973704971353684,1.0901059622698113,1.4031077687776092,-0.3351456207296024,-0.43307898396316785,0.12918066006819234,0.23111554729488218,0.2344608149282407,0.4584604144173082,1.1995345794901475,0.0
1.0013351134846462,0.6162244914131713,0.9426997138901452,1.3987494773656957,-0.2179145705956823,-0.42782149947984927,0.2628742241659288,0.22380396937387997,0.22684886324928635,0.45677272882130043,1.2033683215379,0.0
1.0213618157543392,0.6322469663479838,0.8011237467406311,1.3965380108317993,-0.11057332669482275,-0.42013344519505863,0.384402714239536,0.18913024336706258,0.1831991628387837,0.45505298534249783,1.2071877904966422,0.0
1.041388518024032,0.6459577296022837,0.6855381627149939,1.3954285887772886,-0.05547110272553874,-0.4171986297985644,0.14674076982470816,0.08287985389982687,0.08097803343810112,0.45330130467841884,1.2109927183028915,0.0
1.061415220293725,0.6586598360997207,0.6351053248718499,1.3926170781309537,-0.1405755323167486,-0.41578795659710965,0.07053366007273973,0.1304034745577396,0.1288847461099007,0.4515178097680436,1.2147828379137142,0.0
1.081441922563418,0.6697886697116727,0.5564416805976029,1.3894011087749707,-0.16079846779914905,-0.41559347308350847,0.009724175680063007,0.13769713306134992,0.13898561243172708,0.44970262578318554,1.2185578833254664,0.0
1.101468624833111,0.6792478113631305,0.4729570825728887,1.3860189640938925,-0.16910723405391326,-0.41436836319286036,0.0612554945324033,0.1641163317449095,0.16657501865006938,0.44785588011970645,1.2223175895924638,0.0
1.1214953271028039,0.6867176440989905,0.37349163679300046,1.383202985932818,-0.1407989080537226,-0.41117734537783485,0.15955089075127635,0.17219034577712933,0.17563773814119787,0.4459777023885754,1.2260616928455754,0.0
1.1415220293724968,0.692104453467875,0.2693404684442243,1.381187073440994,-0.1007956245912058,-0.4052313878308759,0.29729787734794527,0.17289204598490573,0.17659268283793,0.44406822440677224,1.229789930310744,0.0
1.1615487316421895,0.6954163046032517,0.16559255676883328,1.3799992446800564,-0.0593914380468739,-0.3963311440772237,0.44501218768260803,0.16508760077317472,0.1686793779172273,0.44212758018803616,1.2335020403274277,0.0
1.1815754339118825,0.6967756856455475,0.06796905211479198,1.3794367643471939,-0.028124016643126554,-0.3845678811840068,0.588163144660844,0.15354108375907524,0.15680037824960266,0.4401559059334601,1.2371977623669645,0.0
1.2016021361815754,0.6963590380276362,-0.020832380895563773,1.3791960246047612,-0.012036987121636207,-0.3702123086815319,0.7177786251237523,0.1407481998135294,0.14357025356526212,0.4381533400219318,1.2408768370508576,0.0
1.2216288384512684,0.6943625166793933,-0.09982606741214532,1.3789399563592732,-0.012803412274394188,-0.3536190535600254,0.8296627560753211,0.1287467360554266,0.13110193047248275,0.43612002300042185,1.244539006168978,0.0
1.2416555407209613,0.6909749129955217,-0.16938018419357947,1.3783529145104145,-0.029352092442932423,-0.3351661903351308,0.9226431612447301,0.1188196143119542,0.12073556078796033,0.4340560975741196,1.2481840126976884,0.0
1.2616822429906542,0.6863614955519224,-0.23067087217996454,1.3771757984636919,-0.05885580233613159,-0.3152092134965845,0.9978488419273128,0.1117201984439888,0.11323067418165027,0.43196170859641764,1.2518116008178803,0.0
1.2817089452603472,0.6806564664681498,-0.28525145418863096,1.3752270131703135,-0.09743926466892483,-0.2940759935151311,1.0566609990726779,0.10731385687170146,0.10846608303416092,0.42983700305874556,1.2554215159329298,0.0
1.3017356475300401,0.6739663386300144,-0.33450639190677095,1.3723994982521603,-0.14137574590765578,-0.27205596953039557,1.101001199236771,0.10544615252954626,0.10628181004822128,0.4276821300802533,1.2590135046865651,0.0
1.321762349799733,0.666374313307788,-0.3796012661113256,1.368657119569424,-0.18711893413681546,-0.24940459287871705,1.1325688325839252,0.10582589716867667,0.10638086515816063,0.4254972408973459,1.262587314980648,0.0
1.341789052069426,0.6579461531041011,-0.42140801018434365,1.3640271781040787,-0.23149707326725696,-0.22634800022387794,1.152829632741956,0.10802527704662471,0.10832973299859389,0.4232824888530689,1.266142695992867,0.0
1.361815754339119,0.648736832662872,-0.460466022061454,1.3585888087382743,-0.27191846829022465,-0.2030876170767268,1.1630191573575577,0.1116522596718857,0.11172292725083462,0.42103802938634616,1.2696793981943417,0.0
1.3818424566088119,0.6387961543153954,-0.49703391737383146,1.3524619675886977,-0.3063420574788297,-0.17981096528205917,1.1638325897333783,0.11627683985392062,0.11612678743426864,0.4187640200210709,1.2731971733671346,0.0
1.4018691588785048,0.6281736342950721,-0.5311260010161645,1.3457951471841072,-0.33334102022952694,-0.1566946163263558,1.1558174477851682,0.12164490571803686,0.12128700706792218,0.4164606203550497,1.276695774621672,0.0
1.4218958611481975,0.6169212845794254,-0.5626174857823371,1.3387579712899007,-0.35185879471032105,-0.1339043774964966,1.139511941492959,0.12735832600481758,0.12680504091502767,0.4141279920488021,1.2801749564140723,0.0
1.4419225634178905,0.6050963064624109,-0.5912489058507273,1.3315294125498833,-0.3614279370008713,-0.11159565978367297,1.1154358856411817,0.1330916750404467,0.13235295989526613,0.4117662988142137,1.283634474563378,0.0
1.4619492656875834,0.5927623353000283,-0.6166985581191264,1.3242879540137686,-0.3620729268057379,-0.08991552126468647,1.0840069259493263,0.13874800464138598,0.1378393254489733,0.40937570640304727,1.287074086268695,0.0
1.4819759679572764,0.5799889629060473,-0.6386686196990531,1.317208533211503,-0.35397104011327607,-0.06899830051056408,1.0458610377061184,0.14391010214376515,0.14283991910070895,0.4069563825953091,1.2904935501262298,0.0
1.5020026702269693,0.5668518109167162,-0.6568575994665523,1.3104498987764412,-0.33793172175309594,-0.04897127388358884,1.0013513313487614,0.14871407045433543,0.14750400649772413,0.4045084971874737,1.2938926261462367,0.0
1.5220293724966623,0.5534303790069216,-0.6710715954897305,1.3041586392545805,-0.3145629760930355,-0.02994416918694701,0.9513552348320918,0.20904195632389547,0.20115828903883942,0.4020322219805673,1.2972710757698567,0.0
1.5420560747663552,0.5397301604718282,-0.6850109267546726,1.3000258980904476,-0.2066370582066535,-0.01725255961253552,0.6345804787205742,0.19277530261221548,0.18857140818156817,0.3995277307681099,1.3006286618858631,0.0
1.5620827770360481,0.5258795973794412,-0.6925281546193492,1.2976258769292233,-0.12000105806120887,-0.007940391091506372,0.46560842605145725,0.17769808240478213,0.17509790677404652,0.3969951993239177,1.3039651488473027,0.0
1.582109479305741,0.5119577347311852,-0.6960931324128002,1.296534954679609,-0.05454611248071797,-0.0007191912783589608,0.3610599906573706,0.1667459424800861,0.16519030096430568,0.39443480538976705,1.3072803024880322,0.0
1.602136181575434,0.4980157390185321,-0.6970997856326573,1.2964429334885612,-0.004601059552394232,0.005249664981301652,0.29844281298303066,0.15830513296768453,0.15742560786423512,0.39184672866291986,1.3105738901391553,0.0
1.622162883845127,0.48408930822967067,-0.6963215394430703,1.2971085284810284,0.0332797496233634,0.010508713517517029,0.2629524268107688,0.15183539996269588,0.151375783450934,0.3892311507835117,1.3138456806453502,0.0
1.64218958611482,0.47020536673809776,-0.6941970745786452,1.2983451754342716,0.06183234766216619,0.015394760386694998,0.24430234345889848,0.1466686095122757,0.14646220382257777,0.38658825532180363,1.3170954443810947,0.0
1.6622162883845129,0.4563859086046174,-0.6909729066740179,1.3000025825003467,0.08287035330375633,0.02011082089961043,0.2358030256457715,0.14289283545873466,0.14281924240382943,0.3839182277652987,1.3203229532667808,0.0
1.6822429906542056,0.44265035980746636,-0.6867774398575522,1.3019700108497685,0.0983714174710923,0.024763345125943848,0.23262621131667124,0.14014842648964446,0.1401284748382712,0.38122125550572394,1.3235279807847222,0.0
1.7022696929238985,0.4290169226185617,-0.6816718594452309,1.3041661840154881,0.1098086582859845,0.02939532034538198,0.2315987609719065,0.13837625392014405,0.13836783479101622,0.37849752782587825,1.3267103019950528,0.0
1.7222963951935915,0.4155034400192996,-0.675674129963104,1.3065380425564106,0.11859292704611848,0.03401599654592049,0.23103381002692497,0.1368810516745837,0.1368424123818523,0.37574723588634806,1.329869693551513,0.0
1.7423230974632844,0.40212737006754773,-0.6688034975875945,1.3090401124837239,0.12510349636566448,0.03860121107546216,0.22926072647708357,0.13611289519492442,0.13603673876047245,0.3729705727120911,1.3330059337171258,0.0
1.7623497997329773,0.3889064026989901,-0.6610483684278818,1.3116483328746198,0.13041101954479276,0.04312099195867809,0.2259890441607959,0.13570580626806902,0.13558069015088436,0.37016773317888907,1.336118802379758,0.0
1.7823765020026703,0.3758582406483458,-0.6524081025322154,1.3143491260479352,0.13503965866576917,0.0475362480091376,0.22076280252297506,0.13554770039210556,0.13536745562669383,0.3673389139996707,1.339208081067569,0.0
1.8024032042723632,0.36300048663094625,-0.6428877008699769,1.3171361460919542,0.13935100220094915,0.051802997668593476,0.21333748297279428,0.13610763683397029,0.1358568595746057,0.3644843137107058,1.3422735529643444,0.0
