time,x,x_dot,z,z_dot,theta,theta_dot,u1,u2,x_ref,z_ref,theta_ref
0.0,0.3045985254018213,-0.09124493527220068,0.5200295868742169,0.06784251650220602,0.03485721903522337,-0.05505895395927512,0.29668288419444017,0.29598868151296875,0.5,1.0,0.0
0.020026702269692925,0.30308124815719234,-0.07586386223144913,0.5262402141773007,0.310531365154194,0.03320160725791786,-0.08278058886527506,0.2873043724683677,0.2966828835546732,0.4999824541392403,1.0041887412073853,0.0
0.04005340453938585,0.30186708459734996,-0.060708177992119215,0.5371706923154528,0.5465239069076041,0.039050228198274674,0.29243104701784095,0.29251609293984393,0.2966828856325239,0.4999298177883902,1.0083771884344908,0.0
0.06008010680907877,0.30094418588443206,-0.04614493564589543,0.5528916807397086,0.7860494212127899,0.04822617912930881,0.45879754655170646,0.29549176069752786,0.2966828853943285,0.49984209464164997,1.0125650477216688,0.0
0.0801068090787717,0.3003651057830035,-0.028954005071428313,0.5734364589135558,1.0272389086923588,0.058344281018377034,0.5059050944534115,0.2966828747514513,0.29606977230019643,0.49971929085573213,1.0167520251505358,0.0
0.10013351134846463,0.30021030006688904,-0.007740285805724972,0.5987992218460626,1.2681381466253394,0.067959736532342,0.4807727756982472,0.29668287013709727,0.2947447578584534,0.4995614150494292,1.0209378268645999,0.0
0.12016021361815754,0.30056669148884807,0.01781957109795112,0.6289429453356135,1.507186174477542,0.07601338325610033,0.40268233618791566,0.2853404520478031,0.2826635035605852,0.49936847830300873,1.0251221590898847,0.0
0.14018691588785048,0.3014938005296724,0.046355452041217104,0.6635016542842003,1.7279354474293425,0.0819165032755738,0.2951560009736747,0.22044865548773496,0.21758048971503416,0.499140494157436,1.0293047281555483,0.0
0.1602136181575434,0.30291168616404357,0.07089428171855953,0.7005355088411056,1.851692727845269,0.08551901428644253,0.1801255505434359,0.1703985687110342,0.1680419183203904,0.4988774786134233,1.0334852405144925,0.0
0.1802403204272363,0.3047366002373401,0.09124570366482868,0.7385619558821472,1.9013223520520806,0.08723281608655112,0.08569009000542914,0.13058443128665007,0.12864366073227473,0.49857945013030697,1.0376634027639664,0.0
0.20026702269692925,0.3068853038100612,0.10743517863605388,0.776406456062171,1.8922250090011863,0.0873925151971954,0.007984955532214441,0.10042814707855878,0.09887397237975537,0.4982464296247522,1.0418389216661577,0.0
0.22029372496662217,0.3092862696864901,0.1200482938214458,0.8131846971551411,1.8389120546485072,0.08630874578521404,-0.05418847059906822,0.07743228624457715,0.07621364749492582,0.4978784404692846,1.0460115041687736,0.0
0.24032042723631508,0.31188044801582915,0.12970891646695248,0.8482268441910022,1.7521073517930599,0.08425097994381009,-0.10288829207019756,0.061803371772353906,0.060858507980305745,0.4974755084906501,1.0501808574256075,0.0
0.260347129506008,0.3146255515554542,0.13725517698125259,0.8810821538595119,1.642765483425487,0.08143914025778251,-0.14059198430137926,0.057046749889161336,0.05632337513306995,0.4970376619680023,1.0543466888170925,0.0
0.28037383177570097,0.3175061758054091,0.14403121249774478,0.9116214499758641,1.5269648058176082,0.07805116911985376,-0.1693985568964378,0.05690105956083132,0.05632341100283569,0.4965649316309177,1.0585087059708387,0.0
0.30040053404539385,0.32051741607276846,0.15056201336796807,0.9398506832209015,1.4114616622518688,0.0742042512984833,-0.19234589106852348,0.05678635615431425,0.0563234479756289,0.49605735065723894,1.0626666167821521,0.0
0.3204272363150868,0.323653485509276,0.1568034718253766,0.9657758758783273,1.2962596328712894,0.06999067915959511,-0.2106786069444085,0.05668821898553236,0.056323416463619054,0.49551495467074635,1.066820129434536,0.0
0.34045393858477974,0.3269078924774811,0.162720348410255,0.9894028869123463,1.1813505517009557,0.0654893486191085,-0.22506652702433114,0.056603892650648545,0.056323388088766246,0.4949377817386579,1.0709689524201722,0.0
0.3604806408544726,0.3302735898050636,0.16828486637912518,1.0107373567581144,1.0667234922884061,0.06076802824594213,-0.23606601865831897,0.05653894351148149,0.05632340969980202,0.49432587236895703,1.0751127945603784,0.0
0.38050734312416556,0.33374310905714694,0.1734759626041673,1.0297847780649894,0.9523710653437499,0.055878951436039555,-0.2444538404951283,0.056479504219236865,0.05632337857060435,0.49367926950755014,1.0792513650260465,0.0
0.4005340453938585,0.3373086560152504,0.1782773479051737,1.0465502796675634,0.838275080128702,0.0508698429842023,-0.25045542259186226,0.05987721652264973,0.05976415676744415,0.49299801853525244,1.083384373358051,0.0
0.4205607476635514,0.3409678978709088,0.18296209278291967,1.0611405724236576,0.7295146378047094,0.04577529879626748,-0.25472720939674093,0.06952050614290559,0.06944018518130997,0.49228216726460267,1.087511529487638,0.0
0.44058744993324434,0.34472669002683126,0.18793960779612262,1.0738464279846451,0.6352927780493827,0.040621612483382016,-0.25768431564427347,0.07832724699149295,0.07827196359683831,0.4915317659365077,1.09163254375678,0.0
0.4606141522029373,0.3485866440363598,0.1929977004764259,1.0849329427695662,0.5543257392460583,0.035428885410351864,-0.2596363536515081,0.08642011278354036,0.08638773969018838,0.49074686721671645,1.0957471269385064,0.0
0.48064085447263016,0.352545665018796,0.19795104912180775,1.0946433868266965,0.48552220285651027,0.03021549296992756,-0.2606696220212146,0.09352583037591636,0.09352006374133055,0.48992752619212343,1.0998549902572035,0.0
0.5006675567423231,0.35659801282033926,0.20261739007716464,1.1031913007338048,0.4273956953554133,0.025002745176792407,-0.2606373896567576,0.09979380099184122,0.09981598080634825,0.48907380036690284,1.1039558454088796,0.0
0.520694259012016,0.36073492447811456,0.20684558288876562,1.110764973975204,0.37868366206995574,0.01981299810188812,-0.2594873537452145,0.10516627263625691,0.10521713763126668,0.48818574965847245,1.108049404581401,0.0
0.540720961281709,0.3649450187858166,0.2105047153851015,1.1175257909899827,0.3380408507389406,0.014669171611535536,-0.25719132451762916,0.10979421628475997,0.10987307887077412,0.48726343639328856,1.1121353804746905,0.0
0.5607476635514019,0.3692148775849508,0.21349293995671173,1.1236127370533247,0.3043473031670988,0.009593607774462758,-0.25377819185363865,0.11374328959912175,0.11384971466083552,0.48630692530247177,1.116213486320892,0.0
0.5807743658210948,0.3735295095815999,0.21573159983245607,1.1291443886904642,0.2765825818569786,0.004608273794988533,-0.2492666989737113,0.1171220888002471,0.11725497101487861,0.4853162835172637,1.1202834359044958,0.0
0.6008010680907877,0.37787279004546814,0.21716402319341027,1.134222155697045,0.25388835032904233,-0.00026577332454824176,-0.24370235597683876,0.12000317788132686,0.1201610736409976,0.48429158056431554,1.1243449435824273,0.0
0.6208277703604806,0.3822278311592715,0.21775205569016662,1.1389324544571031,0.23551493800290307,-0.005008655845755084,-0.23714412606034208,0.12244652375176192,0.12262732097280049,0.4832328883608088,1.128397724304094,0.0
0.6408544726301736,0.3865773057726976,0.21747373067130463,1.1433484997971728,0.22080226700347821,-0.009602208113640242,-0.22967761339425788,0.12452117565689752,0.12472352802115422,0.48214028120940733,1.1324414936313905,0.0
0.6608811748998665,0.39090372797094947,0.21632110991259182,1.14753238522781,0.20919427153186165,-0.014029361327418673,-0.22135766068892146,0.1262674309780392,0.12648900361076745,0.48101383579304297,1.1364759677586627,0.0
0.6809078771695595,0.3951896921840595,0.21429821065550242,1.1515362834601255,0.2001949116157668,-0.018274932462215763,-0.2122785567398544,0.12772974283442348,0.12796813690642958,0.47985363116953333,1.1405008635326255,0.0
0.7009345794392524,0.39941807898754855,0.21141934017445171,1.155403783174568,0.19337498572212578,-0.022325672606428346,-0.20253700721062923,0.1289546338545019,0.1292077192201459,0.4786597487660336,1.144515898472236,0.0
0.7209612817089452,0.4035722229597838,0.2077071986117614,1.1591712912149077,0.18837540201697997,-0.02617004918736661,-0.19221882904691331,0.12995958736133537,0.13022514654975959,0.4774322723733215,1.1485207907885173,0.0
0.7409879839786382,0.40763606260363616,0.2031919821926178,1.162868568161379,0.18486384732357017,-0.02979831331703321,-0.18141320648333015,0.13078404250653525,0.13105938663308406,0.4761712881399164,1.1525152594043386,0.0
0.7610146862483311,0.41159425182670084,0.19790946115323466,1.1665199083898603,0.18256701142406576,-0.033202874412093436,-0.17022805475301167,0.13144854671434264,0.13173306183791875,0.47487688456603344,1.156499023974139,0.0
0.7810413885180241,0.41543225584817334,0.19190020107362457,1.170144796918928,0.18124442645338923,-0.036376637437166744,-0.15868815125366495,0.13199532269128772,0.13228592073669615,0.47354915249737217,1.1604718049036047,0.0
0.801068090787717,0.4191364044121538,0.1852074281990209,1.1737591397920715,0.18071714365716768,-0.03931498127553955,-0.14691719191864042,0.13240166231594463,0.13269641681500424,0.4721881851187405,1.1644333233692916,0.0
0.82109479305741,0.42269398951321807,0.17787925505321533,1.1773746237375802,0.1807741972754316,-0.04201482650302116,-0.13499226137407996,0.1327111938705846,0.1330086464793699,0.4707940779475151,1.1683833013381941,0.0
0.8411214953271028,0.42609327963756505,0.16996450621734832,1.1810000300335182,0.1812703147969047,-0.04447425906804901,-0.12297162825139313,0.13293244000568283,0.13323029625074986,0.46936692882693704,1.1723214615872586,0.0
0.8611481975967957,0.4293235524854439,0.1615136423939441,1.1846414871497228,0.18207285581023872,-0.04669319785934877,-0.11094693956498755,0.1331295391949525,0.13342697779149265,0.4679068379192454,1.1762475277228392,0.0
0.8811748998664887,0.4323750418407342,0.15257446776451622,1.1883044026874259,0.18314577688515693,-0.04867221426065089,-0.09895082006510554,0.13325701266529216,0.1335519338182405,0.46641390769864727,1.1801612242000974,0.0
0.9012016021361816,0.4352390097747837,0.14319839670247278,1.191992106324852,0.18438518187130853,-0.050413554328299505,-0.08706700338243131,0.13330376106456146,0.1335952505859076,0.46488824294412573,1.184062276342339,0.0
0.9212283044058746,0.4379077747858988,0.13343825055575623,1.1957055478575107,0.18567207663294183,-0.051920188769791056,-0.07533172207457788,0.133315521732624,0.13360171283548464,0.4633299507320861,1.1879504103602934,0.0
0.9412550066755675,0.44037464925109593,0.12334372325985615,1.1994446448291631,0.1869548485826228,-0.05319657448343171,-0.06381928568203228,0.13328521680856592,0.13356532482395567,0.4617391404288412,1.1918253533713281,0.0
0.9612817089452603,0.4426339421751758,0.11296464620399392,1.2032080945767312,0.1881724873784056,-0.05424778769233069,-0.05256066044494946,0.13328188532436513,0.13355521756962221,0.4601159236829352,1.1956868334186013,0.0
0.9813084112149533,0.4446808365189084,0.10234471718662684,1.2069954229075603,0.18936641654146374,-0.0550794500533265,-0.04158311804978986,0.13320148452396094,0.1334663977291576,0.4584604144173082,1.1995345794901475,0.0
1.0013351134846462,0.4465115327404541,0.09153481107728453,1.210803892896082,0.19042349942608583,-0.055698488927092525,-0.0309519436883011,0.13309192283776597,0.13334750901068818,0.45677272882130043,1.2033683215379,0.0
1.0213618157543392,0.44812315247846907,0.08058098690074998,1.2146299372601994,0.19130221820587115,-0.05611254834224522,-0.020702970757635476,0.08654624015768816,0.08624801636943265,0.45505298534249783,1.2071877904966422,0.0
1.041388518024032,0.44959070560700515,0.07337765642680304,1.217088230516117,0.12291466279588474,-0.05676484866221819,-0.0326150159986485,0.1003475328061245,0.1003981804883311,0.45330130467841884,1.2109927183028915,0.0
1.061415220293725,0.45089012487504543,0.06497096340201267,1.2185936053951412,0.07526874395120461,-0.05737609198497381,-0.03056216613778047,0.11226988626008355,0.11244536678150259,0.4515178097680436,1.2147828379137142,0.0
1.081441922563418,0.45199952601595195,0.05547005704532519,1.2195014089120668,0.04539017584628276,-0.0578464469774364,-0.023517749623130555,0.1211503993208797,0.12141282063539105,0.44970262578318554,1.2185578833254664,0.0
1.101468624833111,0.4529019064700276,0.04511902270378302,1.2200760499626815,0.028732052530733097,-0.058106479808174426,-0.013001641536900761,0.1277370003905929,0.1280515227530887,0.44785588011970645,1.2223175895924638,0.0
1.1214953271028039,0.4535844418622086,0.03412676960904895,1.2205133279134757,0.021863897539712587,-0.05811468402647983,-0.00041021091526973613,0.13248974668734537,0.1328313612965182,0.4459777023885754,1.2260616928455754,0.0
1.1415220293724968,0.45403813944271787,0.022684879025463546,1.2209542911053064,0.022048159591537823,-0.057849589991389276,0.013254701754527613,0.13578720679420803,0.1361363255792538,0.44406822440677224,1.229789930310744,0.0
1.1615487316421895,0.4542574795237568,0.010967004051946389,1.2214965863029246,0.02711475988090927,-0.057305415824292966,0.027208708354815564,0.1379543533806348,0.13829669466825611,0.44212758018803616,1.2335020403274277,0.0
1.1815754339118825,0.45424001533007463,-0.0008732096841063391,1.2222041968939628,0.03538052955190844,-0.05648781585199459,0.040879998614917736,0.13925237393221843,0.13957879251322697,0.4401559059334601,1.2371977623669645,0.0
1.2016021361815754,0.45398597609071106,-0.012701961968179158,1.223115272671526,0.04555378887816345,-0.055409761920920945,0.05390269655368335,0.13990505793169478,0.1402076674790382,0.4381533400219318,1.2408768370508576,0.0
1.2216288384512684,0.453497860174569,-0.02440579580710367,1.2242487842620533,0.05667557952636573,-0.05409052942378534,0.06596162485677988,0.14006866899378462,0.14034285916607583,0.43612002300042185,1.244539006168978,0.0
1.2416555407209613,0.45278009089812654,-0.03588846382212309,1.2256092023119443,0.068020902494543,-0.05255306998064197,0.0768729721571687,0.13988849035807077,0.14013188233039725,0.4340560975741196,1.2481840126976884,0.0
1.2616822429906542,0.4518386575482528,-0.047071667493685944,1.2271908310340522,0.07908143610540425,-0.05082222170855401,0.08654241360439716,0.13951773468206932,0.13972939696604417,0.43196170859641764,1.2518116008178803,0.0
1.2817089452603472,0.4506807349555199,-0.05789612963664344,1.2289823610365471,0.08957650012474827,-0.04892354837494197,0.09493366668060269,0.13899958456858114,0.13917923922376532,0.42983700305874556,1.2554215159329298,0.0
1.3017356475300401,0.4493144807522312,-0.06831271016443703,1.230968151577318,0.09928952703855108,-0.046882814713288486,0.10203668308267341,0.1383982424636258,0.13854634102409463,0.4276821300802533,1.2590135046865651,0.0
1.321762349799733,0.4477488037641919,-0.07828384940196292,1.2331301355688102,0.1080991995746101,-0.04472540162061222,0.10787065463381408,0.13776271169395068,0.1378801999656115,0.4254972408973459,1.262587314980648,0.0
1.341789052069426,0.4459931660185295,-0.08778188728311875,1.2354492707697182,0.11595676004539594,-0.042475910237025155,0.11247456917935318,0.13712784135545428,0.13721640086476866,0.4232824888530689,1.266142695992867,0.0
1.361815754339119,0.44405741755258343,-0.09678742329730237,1.2379065755616336,0.12286523959577589,-0.04015757342675997,0.11591684051325907,0.13651473324443136,0.13657599276162688,0.42103802938634616,1.2696793981943417,0.0
1.3818424566088119,0.4419516630193449,-0.10528772666192684,1.2404837464050655,0.1288585421715896,-0.03779229879126322,0.11826373177483797,0.13593383835850567,0.1359690820614975,0.4187640200210709,1.2731971733671346,0.0
1.4018691588785048,0.43968615449433646,-0.11327542625042258,1.2431634562897833,0.13398549423589162,-0.035400945272866885,0.1195676759198173,0.13540826722688434,0.13541940918268539,0.4164606203550497,1.276695774621672,0.0
1.4218958611481975,0.4372711798596339,-0.12074873173512805,1.2459300432195892,0.1383293464903012,-0.03300282004094892,0.11990626159589744,0.1349245253570662,0.13491352736341594,0.4141279920488021,1.2801749564140723,0.0
1.4419225634178905,0.4347170026601103,-0.12770885997617745,1.2487691065777944,0.14195316791025783,-0.03061564171897396,0.1193589160987484,0.13449442550258506,0.13446338958683607,0.4117662988142137,1.283634474563378,0.0
1.4619492656875834,0.4320337811159272,-0.13416107720915613,1.2516678554564857,0.14493744393457186,-0.028255429746276924,0.11801059863485192,0.13411753849683455,0.1340683941380615,0.40937570640304727,1.287074086268695,0.0
1.4819759679572764,0.42923150932920456,-0.14011358933613333,1.2546150903685105,0.1473617456012335,-0.025936644144646217,0.11593928008153519,0.13378965258639702,0.13372436541051863,0.4069563825953091,1.2904935501262298,0.0
1.5020026702269693,0.42631996902209074,-0.14557701535569184,1.2576010767645616,0.14929931980255692,-0.023672158242406403,0.11322429511199075,0.133508738339212,0.13342916269366512,0.4045084971874737,1.2938926261462367,0.0
1.5220293724966623,0.4233086851759265,-0.15056419230821178,1.2606174817326594,0.1508202484048971,-0.021473349397914693,0.10994044222458532,0.15453884206799118,0.1508527920592336,0.4020322219805673,1.2972710757698567,0.0
1.5420560747663552,0.4201932333185207,-0.1557725928702908,1.2642340122290523,0.18082652481964562,-0.022225325869409947,-0.03759882357476246,0.1421289032821946,0.1405084879604532,0.3995277307681099,1.3006286618858631,0.0
1.5620827770360481,0.4169909619328485,-0.16011356928360881,1.268113214249953,0.1939601010450372,-0.024273010031872894,-0.10238420812314802,0.13972128595708241,0.13897350735931593,0.3969951993239177,1.3039651488473027,0.0
1.582109479305741,0.41370014005264644,-0.1645410940101047,1.2721963244356729,0.2041555092860023,-0.026917109950665354,-0.13220499593962262,0.13724522747749235,0.1370953630434902,0.39443480538976705,1.3072803024880322,0.0
1.602136181575434,0.41031399790474105,-0.16930710739526988,1.2764184194346304,0.21110474994787945,-0.02967870606710629,-0.13807980582204674,0.1352747238301642,0.1355082354049601,0.39184672866291986,1.3105738901391553,0.0
1.622162883845127,0.4068233301080448,-0.17453338983481353,1.2807263689428032,0.21539747540863838,-0.032250979302690976,-0.12861366177923444,0.1336447959464272,0.13411271246424905,0.3892311507835117,1.3138456806453502,0.0
1.64218958611482,0.40321851747428183,-0.18024063168814733,1.2850749476587087,0.21742893579527045,-0.03444659808030164,-0.10978093888053335,0.13226992709814905,0.1328696291258501,0.38658825532180363,1.3170954443810947,0.0
1.6622162883845129,0.3994907434774411,-0.18638869984203527,1.2894250158044898,0.21750340728905684,-0.03616050706750322,-0.08569544936007903,0.13110128658907994,0.13176213656310287,0.3839182277652987,1.3203229532667808,0.0
1.6822429906542056,0.3956326880021216,-0.19290277376597753,1.2937425698193343,0.21587770074223364,-0.03734424822546358,-0.05918705789801762,0.13014290145154658,0.13081616894720505,0.38122125550572394,1.3235279807847222,0.0
1.7022696929238985,0.39163884428376966,-0.19969218591759696,1.2979992028008944,0.21283164907800858,-0.03798837272163256,-0.03220622480844951,0.1293862946133319,0.1300396763529794,0.37849752782587825,1.3267103019950528,0.0
1.7222963951935915,0.38750563453795156,-0.20666048729090455,1.3021721047267845,0.20864509629450037,-0.03810926003907816,-0.006044365872280553,0.12882282398005518,0.12943559118429587,0.37574723588634806,1.329869693551513,0.0
1.7423230974632844,0.3832313919152781,-0.213712131133672,1.3062439781792403,0.20359367262279712,-0.03773983630231163,0.0184711868383267,0.1284404602083639,0.12900006268782455,0.3729705727120911,1.3330059337171258,0.0
1.7623497997329773,0.3788162669659401,-0.22075624746689948,1.3102027971183707,0.19794094695652303,-0.03692303161046362,0.04084023459240059,0.12822362836599832,0.12872318073472122,0.37016773317888907,1.336118802379758,0.0
1.7823765020026703,0.3742620943015915,-0.22770863321743026,1.3140414188024445,0.1919310842036844,-0.03570726528748625,0.06078831614886862,0.12815228040927837,0.12858894383303518,0.3673389139996707,1.339208081067569,0.0
