time,x,x_dot,z,z_dot,theta,theta_dot,u1,u2,x_ref,z_ref,theta_ref
0.0,0.1462613138950113,0.005698229034040561,1.263650239801926,0.062338553401921404,0.004091542080289472,0.055867934479557485,0.06266918286845512,0.05632337490794715,0.5,1.0,0.0
0.020026702269692925,0.14638239436277536,0.006054023388204009,1.2627387889780568,-0.04557254119346564,0.0001313110908824467,-0.1980115494703513,0.05632337490489825,0.06949061565417378,0.4999824541392403,1.0041887412073853,0.0
0.04005340453938585,0.14651099976196497,0.0064302699594807585,1.2597719962157254,-0.14833963811656792,0.006708585101501854,0.32886370053097047,0.05632337496030203,0.06427101822072925,0.4999298177883902,1.0083771884344908,0.0
0.06008010680907877,0.14663972159892516,0.006436091848009144,1.254674512888605,-0.25487416635602594,0.019636843478793232,0.6464129188645689,0.056323374931510864,0.060652662477969875,0.49984209464164997,1.0125650477216688,0.0
0.0801068090787717,0.14677993994923264,0.007010917515373901,1.2473950865977164,-0.36397131454443643,0.036011213760697415,0.8187185140952093,0.05632337490488298,0.05825015130017535,0.49971929085573213,1.0167520251505358,0.0
0.10013351134846463,0.14695333444185932,0.008669724631334067,1.237900662175568,-0.4747212211074263,0.05390297370641965,0.8945879972861115,0.056323374935292776,0.05667226810253557,0.4995614150494292,1.0209378268645999,0.0
0.12016021361815754,0.1471867944434834,0.011673000081204032,1.2261703638766306,-0.5865149149468722,0.07204668500843352,0.9071855651006944,0.05724446657054312,0.05632583354873757,0.49936847830300873,1.0251221590898847,0.0
0.14018691588785048,0.14751060719216672,0.01619063743416516,1.21221503414744,-0.6977664864595289,0.0894279281143564,0.8690621552961446,0.10945804782731262,0.10759013642440243,0.499140494157436,1.0293047281555483,0.0
0.1602136181575434,0.1480654478966925,0.02774203522628882,1.1975658476302056,-0.7324593258617196,0.10528907851798962,0.7930575201816602,0.15736560365324948,0.15436533612894135,0.4988774786134233,1.0334852405144925,0.0
0.1802403204272363,0.1490319684034126,0.048326025336004996,1.1836167521764986,-0.6974547726853514,0.11872756485057898,0.6719243166294675,0.18981928119013253,0.18605172478534202,0.49857945013030697,1.0376634027639664,0.0
0.20026702269692925,0.15058239040839488,0.07752110024911464,1.171304240215709,-0.6156255980394808,0.12913430370757664,0.5203369428498847,0.20666940826978789,0.20257574016354976,0.4982464296247522,1.0418389216661577,0.0
0.22029372496662217,0.15284894479438801,0.11332771929965617,1.1611078993624895,-0.5098170426609782,0.13625362801668744,0.355966215455538,0.21182704574678407,0.20777213417300197,0.4978784404692846,1.0460115041687736,0.0
0.24032042723631508,0.15591324530968445,0.15321502576482118,1.1531685014887685,-0.3969698936860492,0.14012138242492406,0.19338772041183444,0.20858771599667822,0.20478659554540704,0.4974755084906501,1.0501808574256075,0.0
0.260347129506008,0.15980589772554474,0.1946326207930147,1.1473854627642117,-0.2891519362278362,0.1409445706328862,0.041159410398107554,0.20028396378936283,0.19692184309067257,0.4970376619680023,1.0543466888170925,0.0
0.28037383177570097,0.16451620357064506,0.23551529225501566,1.1435155195251692,-0.1934971619521247,0.13907737753711347,-0.09335965478863681,0.18989048215492443,0.18700604382410368,0.4965649316309177,1.0585087059708387,0.0
0.30040053404539385,0.17000597500322787,0.2744885716291401,1.1412578992396512,-0.11288101427589921,0.13490427101005928,-0.20865532635270911,0.17845832123798427,0.1760479154279192,0.49605735065723894,1.0626666167821521,0.0
0.3204272363150868,0.17621812535226578,0.3106075174518957,1.1402838542428102,-0.04870224984205125,0.12880689170349502,-0.3048689653282117,0.16732502360315388,0.165371356908356,0.49551495467074635,1.066820129434536,0.0
0.34045393858477974,0.1830866494176888,0.3434262032711505,1.1402748863845888,-0.0004483929110703083,0.12115297311907684,-0.3826959292209097,0.15742204792766612,0.15587972667074904,0.4949377817386579,1.0709689524201722,0.0
0.3604806408544726,0.19054399795830324,0.37286742703072173,1.140948985015249,0.03370493153301053,0.1122737001036101,-0.44396365077333827,0.14897605799909963,0.14779359440118053,0.49432587236895703,1.0751127945603784,0.0
0.38050734312416556,0.19852450459812984,0.3990253319913299,1.1420667027093656,0.055885884705832944,0.10245875057819388,-0.4907474762708094,0.1420543719744002,0.14118449175090247,0.49367926950755014,1.0792513650260465,0.0
0.4005340453938585,0.20696618047668194,0.4220837939276046,1.1434328781099938,0.06830877003141325,0.09195963568178667,-0.5249557448203606,0.1369901025940782,0.1363854769993116,0.49299801853525244,1.083384373358051,0.0
0.4205607476635514,0.21581244862677076,0.44231340750444137,1.1449062623517,0.07366921208530086,0.08098965551698999,-0.5484990082398321,0.13324978801688725,0.13287097438494844,0.49228216726460267,1.087511529487638,0.0
0.44058744993324434,0.22501050921165489,0.45990302924420595,1.1463838107551234,0.0738774201711796,0.06973023228352354,-0.5629711616733224,0.13082784133354367,0.13063719154688877,0.4915317659365077,1.09163254375678,0.0
0.4606141522029373,0.23451115890968244,0.4750324849013777,1.1478004855575852,0.07083374012309013,0.058332377411186145,-0.5698927436168695,0.12945295234966508,0.12941951746828784,0.49074686721671645,1.0957471269385064,0.0
0.48064085447263016,0.24426776675085748,0.487830392058752,1.1491213103434403,0.06604123929276082,0.04692209109855858,-0.5705143156313789,0.1289226696176212,0.12902141434990924,0.48992752619212343,1.0998549902572035,0.0
0.5006675567423231,0.2542355115107455,0.4983872379944011,1.1503354525125853,0.06070710845724306,0.03560513144348273,-0.5658479827537929,0.12906734972279324,0.12927505452950835,0.48907380036690284,1.1039558454088796,0.0
0.520694259012016,0.264370797251494,0.5067642870374228,1.151451218106105,0.055788279675980844,0.0244685015037342,-0.5568314969874265,0.12967305238352297,0.1299732539615708,0.48818574965847245,1.108049404581401,0.0
0.540720961281709,0.2746307711675874,0.5129986958046687,1.1524898099899064,0.05192959419006576,0.013585888218332747,-0.5441306642700721,0.1306323315845659,0.13100956093148558,0.48726343639328856,1.1121353804746905,0.0
0.5607476635514019,0.28497313966287086,0.5171184247641744,1.1534821584802508,0.04961742451721776,0.003018483881547462,-0.5283702168392643,0.13178739978180806,0.13223115749533723,0.48630692530247177,1.116213486320892,0.0
0.5807743658210948,0.2953560740489351,0.5191467193032122,1.1544643257416582,0.04910836307037644,-0.007181013381448403,-0.5099748631497933,0.133045848695072,0.13354333126090026,0.4853162835172637,1.1202834359044958,0.0
0.6008010680907877,0.305738292016049,0.5191108983556948,1.1554747488776078,0.05052115679747987,-0.016970224505484133,-0.4894605562017864,0.13429311236596214,0.13483638017009847,0.48429158056431554,1.1243449435824273,0.0
0.6208277703604806,0.3160792410219165,0.5170474502933721,1.1565509428673695,0.0538096994880796,-0.026313177695477842,-0.4671476594996856,0.13548999412103047,0.13607285699500407,0.4832328883608088,1.128397724304094,0.0
0.6408544726301736,0.326339346219718,0.5130052598900764,1.1577284023958654,0.058872976424799356,-0.03517889494428593,-0.44328586244040447,0.13654652526339184,0.13716257838359922,0.48214028120940733,1.1324414936313905,0.0
0.6608811748998665,0.33648031860649785,0.5070486193389926,1.159037979525608,0.06547885648712966,-0.04354155245447985,-0.4181328755096955,0.13751662550044064,0.13815617225573762,0.48101383579304297,1.1364759677586627,0.0
0.6809078771695595,0.34646538805156146,0.49925347225318095,1.1605074879637962,0.07347542190940796,-0.051383102963346,-0.39207752544330776,0.1382595112263504,0.13892222077965205,0.47985363116953333,1.1405008635326255,0.0
0.7009345794392524,0.3562596960521125,0.4897154000275511,1.1621577316021414,0.08251218191726413,-0.05868576929268161,-0.36513331646678066,0.13893009101571976,0.13960497445681067,0.4786597487660336,1.144515898472236,0.0
0.7209612817089452,0.3658303411018255,0.4785322524856512,1.164006998657292,0.09246335275753492,-0.06544056797510082,-0.33773993412096087,0.13932755798663787,0.14001263042096612,0.4774322723733215,1.1485207907885173,0.0
0.7409879839786382,0.37514687374474937,0.46582663214619313,1.1660653141448363,0.1029157743772061,-0.07164009228221958,-0.3099762153559381,0.1397201349002278,0.1404079916589815,0.4761712881399164,1.1525152594043386,0.0
0.7610146862483311,0.38418100993681437,0.4517068096032503,1.1683423606983292,0.11385232767464709,-0.07728284477379825,-0.2821376245789334,0.13989860526484202,0.1405842851334846,0.47487688456603344,1.156499023974139,0.0
0.7810413885180241,0.3929071204394817,0.436305525133367,1.1708413805393567,0.12495099205137866,-0.08237127427534721,-0.2544214750774481,0.13989396681460226,0.14057224047883174,0.47354915249737217,1.1604718049036047,0.0
0.801068090787717,0.401302286902855,0.4197583231686642,1.1735601466083387,0.13593830344909924,-0.08691198544219453,-0.2270355583423661,0.13978602492517342,0.14045207348926236,0.4721881851187405,1.1644333233692916,0.0
0.82109479305741,0.40934618171941733,0.40219474082811574,1.1764933768814898,0.14666151365754795,-0.09091540595966256,-0.20017102587340177,0.13954282762486642,0.14020185703526605,0.4707940779475151,1.1683833013381941,0.0
0.8411214953271028,0.41702114478737773,0.383748153398021,1.1796319789117458,0.1569301015127958,-0.09438776334244839,-0.17361786913929125,0.13919674073691818,0.13983662878465067,0.46936692882693704,1.1723214615872586,0.0
0.8611481975967957,0.4243121111840002,0.36454831983112407,1.1829637842145413,0.1665902651397798,-0.09734495319670018,-0.14785949271258952,0.13879282127227172,0.13942076392150335,0.4679068379192454,1.1762475277228392,0.0
0.8811748998664887,0.4312064479649981,0.3447168390498936,1.1864751919712984,0.1755703878378555,-0.09979707557740526,-0.12260611903525565,0.13823040170880313,0.13884535648544793,0.46641390769864727,1.1801612242000974,0.0
0.9012016021361816,0.4376941822857571,0.3243867160379523,1.1901480965379898,0.18364522833457603,-0.10175503340183736,-0.09789789122160375,0.13776567607123139,0.1383569492836034,0.46488824294412573,1.184062276342339,0.0
0.9212283044058746,0.44376722856174516,0.3036523137994012,1.1939673193428075,0.1909611402408906,-0.10323825385287846,-0.07416102255205548,0.13708431406610558,0.1376554823247411,0.4633299507320861,1.1879504103602934,0.0
0.9412550066755675,0.4494202227003923,0.28264970693235647,1.1979115564626877,0.19721185599400165,-0.10426326562557749,-0.05125058863495123,0.13651138527771128,0.1370567433450033,0.4617391404288412,1.1918253533713281,0.0
0.9612817089452603,0.45464946834195524,0.2614622820781489,1.2019628330549785,0.20256382961454342,-0.10485112913827059,-0.029393175634654815,0.1359601090835765,0.13648018983245255,0.4601159236829352,1.1956868334186013,0.0
0.9813084112149533,0.4594530865202371,0.24018090891409102,1.206104030944692,0.20705989448567577,-0.10502244400961565,-0.008565743567252763,0.13536100845610538,0.1358551630170675,0.4584604144173082,1.1995345794901475,0.0
1.0013351134846462,0.46383112102489754,0.21890172523302165,1.210316816318442,0.21063926868749147,-0.10479829701214677,0.011207349873444093,0.13504521439653122,0.13550929389204122,0.45677272882130043,1.2033683215379,0.0
1.0213618157543392,0.4677844099836799,0.1976644479391187,1.2145913381464901,0.2137260914024103,-0.10420306775486536,0.02976146286407092,0.08989704055773297,0.08707208374922201,0.45505298534249783,1.2071877904966422,0.0
1.041388518024032,0.47145936177487857,0.1837475895599317,1.2175488258129652,0.14787438332375807,-0.10586829389935189,-0.0832613072243259,0.08930941078612568,0.08749375247459662,0.45330130467841884,1.2109927183028915,0.0
1.061415220293725,0.47485823412618755,0.16994361756544837,1.2191884878531332,0.08198310200840195,-0.10898460157914197,-0.15581538398950384,0.10518332833490335,0.10444991325133084,0.4515178097680436,1.2147828379137142,0.0
1.081441922563418,0.4779256953780071,0.15337306259097855,1.2199948801966558,0.040319617176129655,-0.11268475697578355,-0.18500776983208053,0.11871362982863046,0.11883080289964996,0.44970262578318554,1.2185578833254664,0.0
1.101468624833111,0.48060753622066454,0.1340920421328707,1.2203788228176444,0.019197131049428297,-0.11628766678706522,-0.1801454905640819,0.12899669687541634,0.1296729048351701,0.44785588011970645,1.2223175895924638,0.0
1.1214953271028039,0.4828560302417939,0.11242470105646898,1.2206502546669906,0.013571592467307,-0.11934621217553394,-0.152927269423436,0.13602923961362137,0.13705849158920508,0.4459777023885754,1.2260616928455754,0.0
1.1415220293724968,0.4846331112516743,0.08885405049402058,1.2210198648215296,0.01848050772694715,-0.12157853881062655,-0.11161633175463112,0.14036809339715842,0.14159060305586738,0.44406822440677224,1.229789930310744,0.0
1.1615487316421895,0.4859112952732779,0.06390920108018139,1.2216166048504176,0.029837001444397437,-0.12283087496304326,-0.06261680762083563,0.14270329180468733,0.14400804475418522,0.44212758018803616,1.2335020403274277,0.0
1.1815754339118825,0.4866732418963497,0.03809733115358847,1.2225090553921252,0.044622527085378255,-0.12303834497165139,-0.01037350043040599,0.14332455859996096,0.14463190152001382,0.4401559059334601,1.2371977623669645,0.0
1.2016021361815754,0.4869118606669964,0.011930938532332708,1.2237146305172018,0.0602787562538267,-0.12219977296897107,0.041928600134014865,0.14285310798291354,0.14410843430961093,0.4381533400219318,1.2408768370508576,0.0
1.2216288384512684,0.4866285248445975,-0.014166791119944452,1.2252183257227718,0.07518476027849885,-0.12035763924373916,0.09210668626159604,0.14165955171964953,0.14282688946377042,0.43612002300042185,1.244539006168978,0.0
1.2416555407209613,0.48583168900159635,-0.03984179215005763,1.2269839110584042,0.08827926678161634,-0.11758324635294468,0.13871964453972357,0.1401464297726523,0.14120702158814205,0.4340560975741196,1.2481840126976884,0.0
1.2616822429906542,0.48453508807271184,-0.06483004644422509,1.2289659926428689,0.09910407922323192,-0.11396291067970762,0.18101678366185311,0.13848249724965392,0.13942225282817786,0.43196170859641764,1.2518116008178803,0.0
1.2817089452603472,0.48275665915906557,-0.08892144568231433,1.2311149797716596,0.10744935643953461,-0.10959419601221042,0.21843573337486033,0.13688123067431118,0.13769528512616624,0.42983700305874556,1.2554215159329298,0.0
1.3017356475300401,0.4805172758723809,-0.11196916433423207,1.233383421373903,0.11342208011216451,-0.10457850239628112,0.2507846807964632,0.1354533027118672,0.13614256983423645,0.4276821300802533,1.2590135046865651,0.0
1.321762349799733,0.4778398839557688,-0.13386959583060354,1.235729261961966,0.11729202940315028,-0.09901642086052795,0.2781040767876583,0.13426453220948417,0.13483158578122054,0.4254972408973459,1.262587314980648,0.0
1.341789052069426,0.4747488610901467,-0.15455114328110642,1.2381177207747527,0.11942294063933102,-0.09300639061962761,0.30050151204501835,0.133361181880877,0.13381220038209285,0.4232824888530689,1.266142695992867,0.0
1.361815754339119,0.4712695148298084,-0.17396731301691398,1.2405226324260035,0.12024558256254089,-0.08664180493672662,0.3182292841450481,0.13273427372908903,0.13307624239528118,0.42103802938634616,1.2696793981943417,0.0
1.3818424566088119,0.4674278155049018,-0.19208496624532928,1.2429261271880507,0.1201747381023656,-0.08001036184826614,0.3315721544230245,0.1323500245075976,0.13258886204113604,0.4187640200210709,1.2731971733671346,0.0
1.4018691588785048,0.46325024035220574,-0.20887875763480263,1.2453175610652,0.11957169385747268,-0.07319491713002119,0.3407722359122473,0.13219170098288058,0.13233519024827028,0.4164606203550497,1.276695774621672,0.0
1.4218958611481975,0.45876359210990536,-0.22433241211501856,1.2476930011501868,0.11877200424933111,-0.06627199403258065,0.34614615487202655,0.13222095364567854,0.13227633921608536,0.4141279920488021,1.2801749564140723,0.0
1.4419225634178905,0.4539948876064006,-0.23843522517523746,1.2500540449909658,0.1180521920389499,-0.059312218953472884,0.34798875395538753,0.13236768888715286,0.13234130793321855,0.4117662988142137,1.283634474563378,0.0
1.4619492656875834,0.4489713100424372,-0.2511788781981707,1.252405703551991,0.11758292805125829,-0.052381053485035044,0.34655827342189255,0.13266538073528575,0.13256628596478942,0.40937570640304727,1.287074086268695,0.0
1.4819759679572764,0.4437199436053775,-0.26256832185298506,1.2547574074517183,0.11758519498635828,-0.04553662850315283,0.3422212490941109,0.13300541420309808,0.1328390246981582,0.4069563825953091,1.2904935501262298,0.0
1.5020026702269693,0.43826778178800857,-0.2726080908684456,1.2571197230059823,0.1181157777132031,-0.038832661393305885,0.3351983554923471,0.13338172771372675,0.13315642279516965,0.4045084971874737,1.2938926261462367,0.0
1.5220293724966623,0.43264152859916605,-0.28131265944212597,1.2595042072915472,0.11922421427824491,-0.032316095068480655,0.32582831624126185,0.15896327067165503,0.1545356624902967,0.4020322219805673,1.2972710757698567,0.0
1.5420560747663552,0.4268408414240167,-0.29003435875746947,1.2626071283932572,0.15514605508549623,-0.02934845195890006,0.14838215547902947,0.14952921840514494,0.14744251463936744,0.3995277307681099,1.3006286618858631,0.0
1.5620827770360481,0.42090416864129554,-0.2968336391360559,1.2661840347837658,0.1788453195254368,-0.028052890901637373,0.0647780528631345,0.14430909971072164,0.14321230301071677,0.3969951993239177,1.3039651488473027,0.0
1.582109479305741,0.41484889704653455,-0.30276357973805007,1.2700948300063977,0.1955397611315905,-0.027635870055958092,0.02085104228396363,0.14015875511435613,0.13972367141345263,0.39443480538976705,1.3072803024880322,0.0
1.602136181575434,0.40868391218676975,-0.3082492429882397,1.2742261438624523,0.20656569280272843,-0.02756725671366048,0.0034306671148805687,0.13680310903874685,0.1367941161934266,0.39184672866291986,1.3105738901391553,0.0
1.622162883845127,0.4024136873886367,-0.31351123990665253,1.2784846707795827,0.21292634585652237,-0.0275058927265864,0.003068199353704329,0.13410134646042182,0.13435430397822862,0.3892311507835117,1.3138456806453502,0.0
1.64218958611482,0.3960407553867332,-0.3186466000951727,1.2827941093824202,0.21547193014187851,-0.02724221196745796,0.013184037956421445,0.13197159129331962,0.13237252178872835,0.38658825532180363,1.3170954443810947,0.0
1.6622162883845129,0.38956717761860093,-0.323678888406613,1.2870935020221992,0.21496963198895344,-0.02665800054885707,0.029210570930045098,0.13035248357866677,0.13082293739867745,0.3839182277652987,1.3203229532667808,0.0
1.6822429906542056,0.3829953967050199,-0.32858904567905106,1.2913359485055937,0.21212232416972446,-0.02569790715971797,0.04800466945695468,0.12918989313136275,0.12967673877394909,0.38122125550572394,1.3235279807847222,0.0
1.7022696929238985,0.3763287064892784,-0.3333345107870752,1.2954873722259217,0.20757118601639613,-0.0243491423818814,0.06743823889182857,0.12843166311137533,0.12889968935124604,0.37849752782587825,1.3267103019950528,0.0
1.7222963951935915,0.3695714861582738,-0.33786101655023126,1.2995252282707397,0.20189280224090195,-0.02262710873116887,0.08610168253562672,0.12803263167364673,0.12845947055105408,0.37574723588634806,1.329869693551513,0.0
1.7423230974632844,0.3627292844971596,-0.34211008305571017,1.3034373392453888,0.19560554873246289,-0.020565100727712383,0.10310040017282388,0.12793978038788914,0.1283119352896394,0.3729705727120911,1.3330059337171258,0.0
1.7623497997329773,0.3558088212550543,-0.34602316210526357,1.3072204370998066,0.18915489272088803,-0.01820718911724062,0.11789558052358881,0.1280605681761433,0.1283699942761702,0.37016773317888907,1.336118802379758,0.0
1.7823765020026703,0.3488179569282943,-0.34954321633799834,1.3108774829725878,0.18285229363905545,-0.015603846034007104,0.13016715416167562,0.1283577140991235,0.1286024622166436,0.3673389139996707,1.339208081067569,0.0
