time,x,x_dot,z,z_dot,theta,theta_dot,u1,u2,x_ref,z_ref,theta_ref
0.0,0.5748453837732472,0.06673386691671651,1.047904460184225,0.09468981922802258,-0.10526657683505607,0.029384668650043466,0.09933713978792276,0.09244069062366579,0.5,1.0,0.0
0.020026702269692925,0.5758803432690495,0.05174797479011378,1.0487019921166616,0.03987659662182964,-0.11019652676348836,-0.24649749642161412,0.11788910207175302,0.1229067247922789,0.4999824541392403,1.0041887412073853,0.0
0.04005340453938585,0.5765395915944458,0.03296241626981428,1.0491264431979341,0.021222554063624496,-0.11110751115945292,-0.0455492197982284,0.13667477972396952,0.14040894395444117,0.4999298177883902,1.0083771884344908,0.0
0.06008010680907877,0.576746856215108,0.010363231033112656,1.049710586940706,0.029207187138587186,-0.10903040342741963,0.10385538660166596,0.14161471436472836,0.1441691177802301,0.49984209464164997,1.0125650477216688,0.0
0.0801068090787717,0.5764845063293716,-0.013117494286818247,1.0505819772215226,0.0435695140408365,-0.10491161163245251,0.20593958974835597,0.14073962926893174,0.142503554796925,0.49971929085573213,1.0167520251505358,0.0
0.10013351134846463,0.5757657689233784,-0.03593687029966593,1.051703917281835,0.056097003015621615,-0.09938566499586268,0.2762973318294911,0.13965805995452651,0.1408517401499922,0.4995614150494292,1.0209378268645999,0.0
0.12016021361815754,0.5746124628786294,-0.057665302237447515,1.0530377519568555,0.06669173375101778,-0.09291043098362411,0.32376170061192805,0.13843527347067447,0.13920807878061311,0.49936847830300873,1.0251221590898847,0.0
0.14018691588785048,0.573052036892833,-0.0780212992898221,1.0545433627899374,0.07528054165410367,-0.08582382301774143,0.3543303982941337,0.13745219294667377,0.13791535666090085,0.499140494157436,1.0293047281555483,0.0
0.1602136181575434,0.5711145097828253,-0.09687635550038678,1.0561895625469775,0.08230998785200212,-0.07837437147117275,0.3724725773284345,0.13684568062610447,0.13708286491928706,0.4988774786134233,1.0334852405144925,0.0
0.1802403204272363,0.5688308668507892,-0.11418214660180269,1.0579575419738967,0.08839897134596295,-0.07074335708917509,0.3815507190998822,0.13647667726008256,0.13654503921039432,0.49857945013030697,1.0376634027639664,0.0
0.20026702269692925,0.5662326330743047,-0.12991168882422255,1.0598362527317138,0.09393553789084959,-0.06306608884580897,0.38386341216830483,0.13592561304760614,0.13585225873088647,0.4982464296247522,1.0418389216661577,0.0
0.22029372496662217,0.5633522119112184,-0.14402105815431474,1.0618094874615964,0.09866173649413437,-0.0554560017587246,0.3805043543542184,0.13597513399493857,0.1358029634994909,0.4978784404692846,1.0460115041687736,0.0
0.24032042723631508,0.5602207400001018,-0.1565735955558326,1.0638792058125162,0.10348591754599085,-0.047992051686125095,0.3731975036299749,0.13582883244821842,0.13557505065735556,0.4974755084906501,1.0501808574256075,0.0
0.260347129506008,0.5568693803199849,-0.16756798400584338,1.0660415747644376,0.10811844759607264,-0.040739320972815046,0.36263653566550275,0.1360018391069463,0.13568570448808936,0.4970376619680023,1.0543466888170925,0.0
0.28037383177570097,0.55332814249641,-0.17706189117874438,1.0683022351144897,0.11303301750260727,-0.03374739757138729,0.3495961700713875,0.13632076465157408,0.13596146984551924,0.4965649316309177,1.0585087059708387,0.0
0.30040053404539385,0.5496260435130976,-0.18510494916562167,1.070671170929521,0.11844679075156087,-0.02705045200716146,0.3348472782112917,0.13668474310679285,0.1363006339437946,0.49605735065723894,1.0626666167821521,0.0
0.3204272363150868,0.5457911008020554,-0.19174713555211345,1.073159720190076,0.1244274630277581,-0.020667938402070086,0.3191256802545688,0.1369281947145785,0.1365234978180652,0.49551495467074635,1.066820129434536,0.0
0.34045393858477974,0.5418503556192882,-0.19703725913836298,1.0757754776569943,0.1307878733459152,-0.01461591118977124,0.3026013606149424,0.1371262040955043,0.13670322346307884,0.4949377817386579,1.0709689524201722,0.0
0.3604806408544726,0.5378296702775144,-0.20103426708868985,1.0785245134770356,0.1374517910020689,-0.008908568989385409,0.2853671100192915,0.13735601617621235,0.13692270881006277,0.49432587236895703,1.0751127945603784,0.0
0.38050734312416556,0.5337535968047372,-0.20380367363885707,1.0814137689918564,0.14446277574104135,-0.0035537358599842025,0.2677416564700602,0.13728800023366985,0.136843369426437,0.49367926950755014,1.0792513650260465,0.0
0.4005340453938585,0.5296454197377372,-0.2054088533500056,1.084441180012163,0.15137055101533395,0.0014399668875024552,0.24968513737433287,0.13703810466570826,0.13657722994534663,0.49299801853525244,1.083384373358051,0.0
0.4205607476635514,0.5255269625481782,-0.2059228594779483,1.0875990860445868,0.15789530162118767,0.006059982011064254,0.23100075617808988,0.13688902710193354,0.1364211288401627,0.49228216726460267,1.087511529487638,0.0
0.44058744993324434,0.5214184855641872,-0.20542384919954904,1.0908828453452275,0.16418796503203673,0.010301132726444588,0.21205753576901695,0.13679771793725226,0.13633162113432198,0.4915317659365077,1.09163254375678,0.0
0.4606141522029373,0.5173386804302837,-0.20399025669517262,1.094289573078292,0.1703363866532263,0.014165296938159969,0.19320821058576873,0.13642785840073868,0.13595488911073408,0.49074686721671645,1.0957471269385064,0.0
0.48064085447263016,0.5133045739534925,-0.2017053238395641,1.0978079370067133,0.1759181964210617,0.017647399940885555,0.17410515013627947,0.1362042044715945,0.13573418262556625,0.48992752619212343,1.0998549902572035,0.0
0.5006675567423231,0.5093316245808271,-0.19864746863326466,1.101431045574725,0.18115542840057944,0.020750217062417985,0.15514085607662156,0.13608064270634704,0.13562252456630766,0.48907380036690284,1.1039558454088796,0.0
0.520694259012016,0.5054337392502628,-0.19489426652821737,1.1051550817432552,0.18620180842650635,0.02348367408352906,0.13667285105555396,0.13555906318111777,0.13510067644040127,0.48818574965847245,1.108049404581401,0.0
0.540720961281709,0.5016230104629734,-0.19053643936446835,1.1089642463486535,0.1904582302699178,0.025847937445000625,0.11821316807357812,0.13528234745227338,0.13483488615404846,0.48726343639328856,1.1121353804746905,0.0
0.5607476635514019,0.497910118404081,-0.18564460294462,1.112850176059427,0.19429648553866452,0.02785211776807734,0.10020901615383573,0.13517832227760004,0.13475095481082855,0.48630692530247177,1.116213486320892,0.0
0.5807743658210948,0.494304348025023,-0.1802885189529008,1.1168097780640658,0.19798010023193852,0.029512640790616274,0.0830261511269462,0.1345414848849857,0.1341187212315541,0.4853162835172637,1.1202834359044958,0.0
0.6008010680907877,0.4908130759801356,-0.17456360224436865,1.1208239717005957,0.2007096818264976,0.030833514644836243,0.06604369271099861,0.13432132505999117,0.13391615344418903,0.48429158056431554,1.1243449435824273,0.0
0.6208277703604806,0.4874426028214438,-0.16852365793459195,1.12488625783249,0.2031143065947162,0.03182912500180911,0.04978051784864349,0.1342709377335103,0.1338919382193843,0.4832328883608088,1.128397724304094,0.0
0.6408544726301736,0.48419801314403854,-0.16222948387026245,1.1289953314524832,0.20545368099965844,0.03252069975988677,0.03457873790388309,0.13379616366010932,0.13342692706118867,0.48214028120940733,1.1324414936313905,0.0
0.6608811748998665,0.4810826844314084,-0.15576643563150755,1.1331371126948873,0.20708906212020262,0.03291631291864715,0.019780657938018725,0.13426132978158517,0.13391665930357435,0.48101383579304297,1.1364759677586627,0.0
0.6809078771695595,0.4780996760077163,-0.14915042118460342,1.1373256284128106,0.20942578589616492,0.03303586696566602,0.0059777023509439055,0.13377407562468005,0.1334589207435255,0.47985363116953333,1.1405008635326255,0.0
0.7009345794392524,0.4752499599508515,-0.14248580284323836,1.1415467945817446,0.21105830844670057,0.03290320089460082,-0.00663330355326041,0.13580326359941464,0.13553936093047045,0.4786597487660336,1.144515898472236,0.0
0.7209612817089452,0.47253588063734303,-0.13570396567542503,1.1458614212161664,0.21573133172109044,0.03255951952710404,-0.017184068374838483,0.1345413075167075,0.13429789483400448,0.4774322723733215,1.1485207907885173,0.0
0.7409879839786382,0.46995554928649985,-0.12901656754215968,1.1502323636954916,0.21854712396625825,0.032021387694708366,-0.026906591619784197,0.13283534569206937,0.13261103755560347,0.4761712881399164,1.1525152594043386,0.0
0.7610146862483311,0.46750582504408705,-0.12248621212064116,1.154609376697355,0.2188506500931701,0.03130425146801333,-0.03585681133475196,0.13106173995083303,0.13084694480990686,0.47487688456603344,1.156499023974139,0.0
0.7810413885180241,0.46518277795736496,-0.11615235433610557,1.1589401494508587,0.21653863767518175,0.030415873453106448,-0.04441890074534376,0.13037000848596061,0.13015116709873079,0.47354915249737217,1.1604718049036047,0.0
0.801068090787717,0.46298284728186,-0.10999653377524642,1.1632042882658407,0.21320694074910024,0.02935316466851614,-0.05313543922951539,0.13033577948940278,0.13012261385777416,0.4721881851187405,1.1644333233692916,0.0
0.82109479305741,0.4609024446756141,-0.10402013031229632,1.1674010555026888,0.20983836184240304,0.028120818815924438,-0.06161729262958523,0.13082327565505117,0.13062652782577336,0.4707940779475151,1.1683833013381941,0.0
0.8411214953271028,0.4589377743648882,-0.09823351553629468,1.1715453408952516,0.20721426962814465,0.026732121443139654,-0.06943486863923883,0.13093195618697115,0.13075151965170456,0.46936692882693704,1.1723214615872586,0.0
0.8611481975967957,0.45708404042492495,-0.09268669699816261,1.175640810056088,0.20477345804181407,0.02520026307841636,-0.0765929182361647,0.13149033049146835,0.1313499293258732,0.4679068379192454,1.1762475277228392,0.0
0.8811748998664887,0.45533620341434056,-0.08739185052921872,1.1797048049448233,0.20319974443676833,0.023557403263266753,-0.08214299075748077,0.13077460816611686,0.13064397746697085,0.46641390769864727,1.1801612242000974,0.0
0.9012016021361816,0.45368766092559537,-0.08242712443726022,1.1837164677493466,0.20058314022616391,0.021811461277183825,-0.08729709930414625,0.1317456143127802,0.13166054945125152,0.46488824294412573,1.184062276342339,0.0
0.9212283044058746,0.452132643143094,-0.07775088912506903,1.1877054560419922,0.19944941463228175,0.019998986191691298,-0.0906237542746265,0.13064395242792232,0.13055845186886986,0.4633299507320861,1.1879504103602934,0.0
0.9412550066755675,0.4506635320404644,-0.07345555513147886,1.1916393148194566,0.1966929388732221,0.018119692153977216,-0.09396470188570395,0.13201022760846765,0.1319759526812912,0.4617391404288412,1.1918253533713281,0.0
0.9612817089452603,0.44927405194103903,-0.06947400497126707,1.195559490041629,0.19600876110862395,0.01621462292797871,-0.09525346129992533,0.13052255695683057,0.13047535445935324,0.4601159236829352,1.1956868334186013,0.0
0.9813084112149533,0.4479559730024629,-0.06590394692880647,1.1994218779305819,0.19311939444764062,0.014273460999416602,-0.0970580964281055,0.13226960504520305,0.13227779014283095,0.4584604144173082,1.1995345794901475,0.0
1.0013351134846462,0.4467027095961793,-0.0626631703141825,1.2032792508695063,0.19286864694622446,0.012340550790509941,-0.09664551044533293,0.13041747159013956,0.1304025320651926,0.45677272882130043,1.2033683215379,0.0
1.0213618157543392,0.4455058029043683,-0.059845334590548756,1.207076518562884,0.18986338466888542,0.010397384757776436,-0.09715830163667516,0.13121604263101047,0.1300376502384258,0.45505298534249783,1.2071877904966422,0.0
1.041388518024032,0.44435780631913196,-0.057399829261816186,1.2108202740704828,0.18718777537994144,0.00751321215932599,-0.1442086299225223,0.12976016467641188,0.12908733444769788,0.45330130467841884,1.2109927183028915,0.0
1.061415220293725,0.4432507788862895,-0.05535137164212441,1.2144750186658793,0.18273722976982987,0.004093417692747953,-0.1709897233289019,0.12821624609097895,0.1279411909839024,0.4515178097680436,1.2147828379137142,0.0
1.081441922563418,0.4421733179811085,-0.05387304525905145,1.2180010990925234,0.17630402133220735,0.00045678406248399146,-0.181831681513198,0.1296728106772005,0.12966679962885014,0.44970262578318554,1.2185578833254664,0.0
1.101468624833111,0.4411126050961481,-0.05303564424802003,1.221445874736703,0.17223878220897926,-0.0031812200636677952,-0.18190020630758932,0.1309240540249648,0.13110427315802745,0.44785588011970645,1.2223175895924638,0.0
1.1214953271028039,0.44005466690068956,-0.05289690977292557,1.2248492986470059,0.1701711955151418,-0.006671610031268917,-0.17451949838005604,0.13178063141348006,0.13208457437510454,0.4459777023885754,1.2260616928455754,0.0
1.1415220293724968,0.43898529014657506,-0.05346883770572401,1.2282386089973127,0.16946551751534253,-0.00991556748593633,-0.16219787273337058,0.13237891978451666,0.13274538253496782,0.44406822440677224,1.229789930310744,0.0
1.1615487316421895,0.437890716578624,-0.054728678397552945,1.2316324061024981,0.16968985525926908,-0.012863340186499584,-0.14738863502816282,0.1325296244888827,0.1329359896179609,0.44212758018803616,1.2335020403274277,0.0
1.1815754339118825,0.4367581792550738,-0.05662686617750793,1.2350356346662243,0.1701614281863083,-0.015483316403565275,-0.1309988108532844,0.13287008444221665,0.1332991175688332,0.4401559059334601,1.2371977623669645,0.0
1.2016021361815754,0.43557598851100543,-0.0591095372034202,1.2384585735951512,0.17114694644634748,-0.017757696745401837,-0.11371901709182804,0.13299357073305898,0.13342749553327088,0.4381533400219318,1.2408768370508576,0.0
1.2216288384512684,0.4343338048847515,-0.062109181312697534,1.2419047840065642,0.1723105205706478,-0.019682911728446283,-0.09626074915222237,0.13292530533960809,0.13334154484011335,0.43612002300042185,1.244539006168978,0.0
1.2416555407209613,0.43302275202269264,-0.06555264310294112,1.2453718046182378,0.17335103058368148,-0.021273447298137217,-0.07952677848454662,0.1328163839973649,0.13322180173826104,0.4340560975741196,1.2481840126976884,0.0
1.2616822429906542,0.4316353710082248,-0.06936905072339059,1.2488560805906623,0.17421379862122655,-0.022538275464801066,-0.06324140833319224,0.1327020720638125,0.13307696755560855,0.43196170859641764,1.2518116008178803,0.0
1.2817089452603472,0.43016555083997143,-0.07349100841266862,1.2523536227724348,0.17487710908862755,-0.02350211162380877,-0.04819180795038566,0.13254458043044196,0.13289871111107074,0.42983700305874556,1.2554215159329298,0.0
1.3017356475300401,0.42860850546632207,-0.07785226868246752,1.2558593306052512,0.17528539164082754,-0.024181835141790793,-0.03398617589910051,0.13242135617154308,0.13274287150169894,0.4276821300802533,1.2590135046865651,0.0
1.321762349799733,0.4269606284067517,-0.08239385297851852,1.2593689700309134,0.1754819712831126,-0.024603784195302944,-0.02109745267560755,0.1322875126509262,0.13258577604271116,0.4254972408973459,1.262587314980648,0.0
1.341789052069426,0.42521944376657456,-0.08705923200885614,1.2628781588968008,0.17545944329437135,-0.024786777875753122,-0.009149684022509229,0.13222333353398244,0.1324901269855242,0.4232824888530689,1.266142695992867,0.0
1.361815754339119,0.4233834464557341,-0.09179986554202155,1.2663844845030372,0.17531628031182023,-0.024756189064135025,0.0015294405809051451,0.1321237060345439,0.1323689800640322,0.42103802938634616,1.2696793981943417,0.0
1.3818424566088119,0.42145209379526,-0.09656763302370538,1.2698846564583859,0.17500859776743352,-0.024529405537493842,0.011339176332059164,0.13214828376123477,0.13236346881503067,0.4187640200210709,1.2731971733671346,0.0
1.4018691588785048,0.4194255930662306,-0.1013250364514684,1.2733789604452967,0.1747151993455416,-0.02413065745629072,0.019937404060156247,0.132076295590615,0.13227164204739233,0.4164606203550497,1.276695774621672,0.0
1.4218958611481975,0.4173049869353241,-0.10603030654532603,1.2768649920009667,0.1743015777835025,-0.023575957580548746,0.027734993787098552,0.131934596907363,0.1321041050937882,0.4141279920488021,1.2801749564140723,0.0
1.4419225634178905,0.41509204104536934,-0.1106472944977359,1.2803382114247446,0.17366097118889123,-0.022886107244097606,0.034492516822556905,0.13185042808695668,0.13199178192957453,0.4117662988142137,1.283634474563378,0.0
1.4619492656875834,0.4127890855137582,-0.1151477765805558,1.283795767356397,0.17287779658262772,-0.022083744776455895,0.0401181233820855,0.13180518459173718,0.13192930124288307,0.40937570640304727,1.287074086268695,0.0
1.4819759679572764,0.4103989427551717,-0.11950713792932485,1.287236137066674,0.1720184855138458,-0.02118275666123966,0.04504940576081192,0.13174426294130265,0.13183593338069152,0.4069563825953091,1.2904935501262298,0.0
1.5020026702269693,0.4079248849921302,-0.12370288815207488,1.2906571176373514,0.1710490285338674,-0.020209185485937475,0.04867855876510887,0.13161974872895665,0.13169700088479983,0.4045084971874737,1.2938926261462367,0.0
1.5220293724966623,0.4053705967612519,-0.12771441154391466,1.2940548974192545,0.16988898909515754,-0.01917462938580521,0.05172780500661337,0.13616939264121303,0.1360750506466566,0.4020322219805673,1.2972710757698567,0.0
1.5420560747663552,0.4027372831018405,-0.13166568297057304,1.2975618086734955,0.17534556271204813,-0.018216417298041764,0.047910604388172594,0.13446100759244276,0.1344272864184147,0.3995277307681099,1.3006286618858631,0.0
1.5620827770360481,0.40003015999474445,-0.1353561553548023,1.3011280972128605,0.17831442696824595,-0.017285985433584478,0.04652159322286407,0.13273878135961886,0.1327288425718572,0.3969951993239177,1.3039651488473027,0.0
1.582109479305741,0.39725404887706883,-0.13880555588378063,1.304703095187392,0.17874989872656877,-0.016364283569507327,0.046085093203857536,0.13202566021153547,0.13203693673959058,0.39443480538976705,1.3072803024880322,0.0
1.602136181575434,0.3944130411964316,-0.14205038403186235,1.3082660399219064,0.17814723672572158,-0.015434331829665143,0.04649758699210925,0.13137478857299453,0.131386463304855,0.39184672866291986,1.3105738901391553,0.0
1.622162883845127,0.39151112480265676,-0.14509581968874216,1.3117977229307458,0.17658415044197204,-0.014495818862157249,0.0469256483753949,0.13117670688919225,0.13119211603512856,0.3892311507835117,1.3138456806453502,0.0
1.64218958611482,0.38855207050140494,-0.14795271506259153,1.3152924174250937,0.17473472471739937,-0.013545764625949355,0.047502711810394706,0.13102232980068837,0.13102825861633252,0.38658825532180363,1.3170954443810947,0.0
1.6622162883845129,0.3855396512996232,-0.15062096008908676,1.318745499112938,0.17265408439220953,-0.012591763486859944,0.04770005695447043,0.1310045734446578,0.13100874903595422,0.3839182277652987,1.3203229532667808,0.0
1.6822429906542056,0.3824776154981034,-0.15310179007599187,1.3221565081354218,0.17055045112419295,-0.011635221481873797,0.04782710024930733,0.13096468789220755,0.1309565006405438,0.38122125550572394,1.3235279807847222,0.0
1.7022696929238985,0.379369732049385,-0.15539417243591777,1.3255241692295685,0.1683830547073345,-0.010686031107712548,0.04745951870806236,0.13102289317592059,0.1310120261647295,0.37849752782587825,1.3267103019950528,0.0
1.7222963951935915,0.3762197376961297,-0.15749971766276524,1.32885025492991,0.1663042850170745,-0.009746329729364064,0.04698506891742428,0.13105617347104107,0.13103462097941768,0.37574723588634806,1.329869693551513,0.0
1.7423230974632844,0.37303134932380716,-0.15941941861612705,1.332135675187587,0.16427101288385976,-0.008824657419333881,0.04608361550150902,0.13113802966046684,0.13111102432415134,0.3729705727120911,1.3330059337171258,0.0
1.7623497997329773,0.3698082299839945,-0.16115596699063328,1.3353828521018136,0.16235884571133027,-0.007925360686204606,0.04496483665646386,0.13120746790272544,0.13118016493783896,0.37016773317888907,1.336118802379758,0.0
1.7823765020026703,0.36655397602247586,-0.16271269807593128,1.3385939098456123,0.16055288718993013,-0.007048658102906417,0.04383512916490942,0.13116037603734124,0.13111853516639857,0.3673389139996707,1.339208081067569,0.0
