time,x,x_dot,z,z_dot,theta,theta_dot,u1,u2,x_ref,z_ref,theta_ref
0.0,0.5479120971119267,-0.012224312049589542,1.3585979199113825,0.039473605811872786,-0.1623290608449402,0.09512447032735119,0.056323374923313,0.05640178329165508,0.5,1.0,0.0
0.020026702269692925,0.5473979136302703,-0.025709174082814354,1.3571147820924778,-0.07415689094523359,-0.16036551201750893,0.09817744137156464,0.05632337490699383,0.06098571606341062,0.4999824541392403,1.0041887412073853,0.0
0.04005340453938585,0.5466032974339193,-0.03973080981755024,1.3534279889885137,-0.18433965519820433,-0.1546738230319505,0.2845844492779188,0.05632337497427758,0.059713089843391916,0.4999298177883902,1.0083771884344908,0.0
0.06008010680907877,0.5455349391554855,-0.053417913921696134,1.347521702979194,-0.2953143004659914,-0.14627625570222866,0.419878366486094,0.056323374904883566,0.058730964163392865,0.49984209464164997,1.0125650477216688,0.0
0.0801068090787717,0.5442050991530438,-0.06649200012207897,1.339385720038527,-0.40679914703334363,-0.1359622242152688,0.5157015743479892,0.05632339511272179,0.0577772402178782,0.49971929085573213,1.0167520251505358,0.0
0.10013351134846463,0.5426303799481242,-0.07873596024598015,1.3290112564833554,-0.5187231777585802,-0.1244976849019442,0.5732269656662293,0.05632341312322228,0.057199971793916185,0.4995614150494292,1.0209378268645999,0.0
0.12016021361815754,0.5408296202686073,-0.09003798397585053,1.3163957539419764,-0.630775127068945,-0.11234637379358213,0.6075655554181044,0.0563234638656663,0.056894432442758144,0.49936847830300873,1.0251221590898847,0.0
0.14018691588785048,0.5388229378933849,-0.10033411876111804,1.3015410944967396,-0.7427329722618371,-0.0997539487685354,0.6296212512523357,0.056323374905200986,0.056537165831065266,0.499140494157436,1.0293047281555483,0.0
0.1602136181575434,0.5366316149022359,-0.10956614955745154,1.2844486927023182,-0.8546200897210706,-0.08700692178736359,0.6373513490585905,0.06617630911061094,0.06578708164765859,0.4988774786134233,1.0334852405144925,0.0
0.1802403204272363,0.534248858419798,-0.11913782412189308,1.2654070407211715,-0.9520825990573326,-0.07458794856826838,0.6209486609547609,0.11244945041199596,0.1119215218428034,0.49857945013030697,1.0376634027639664,0.0
0.20026702269692925,0.5315809896610675,-0.13339343793652592,1.2457866791555239,-0.9810180782823813,-0.06260739004983536,0.5990279259216522,0.13760608850318018,0.13705796929490272,0.4982464296247522,1.0418389216661577,0.0
0.22029372496662217,0.528614143977811,-0.14834228416282091,1.2263353373892731,-0.9725670883125381,-0.05108062122672013,0.5763384411557607,0.17719338706587354,0.17635597225552194,0.4978784404692846,1.0460115041687736,0.0
0.24032042723631508,0.5253242980148498,-0.1644922981480591,1.2082223723521133,-0.9056482518579885,-0.040238275817376316,0.5421172704671909,0.20106641790305796,0.20004250699557885,0.4974755084906501,1.0501808574256075,0.0
0.260347129506008,0.5217360993067925,-0.17940993540286135,1.192151839215939,-0.8035266568087135,-0.03022838712174077,0.5004944347817772,0.18572940895811432,0.18458499290860972,0.4970376619680023,1.0543466888170925,0.0
0.28037383177570097,0.5179324413040733,-0.1901829001359602,1.1776664458892097,-0.724269666336465,-0.02114600122442672,0.4541192948657022,0.21103843179277515,0.21018686567463757,0.4965649316309177,1.0585087059708387,0.0
0.30040053404539385,0.5139454971033861,-0.19934721003435976,1.1655188423811342,-0.6073801754037677,-0.012755405621456233,0.4195297801485244,0.18761300180467916,0.18647078599393813,0.49605735065723894,1.0626666167821521,0.0
0.3204272363150868,0.5098465993791975,-0.20494488620943083,1.1550079123412489,-0.5255465019942727,-0.005288079061565396,0.37336632799454184,0.19673635760734193,0.19581145141870665,0.49551495467074635,1.066820129434536,0.0
0.34045393858477974,0.5056786531579713,-0.2083973110613098,1.146405184372575,-0.4301363984336875,0.00143113887708372,0.33596089693245584,0.19063635704321313,0.18964093470778615,0.4949377817386579,1.0709689524201722,0.0
0.3604806408544726,0.5014858434750699,-0.20964048414507158,1.1395262868865819,-0.34394487429966214,0.00734685563403212,0.29578583784741996,0.18983402734208138,0.1889406869335372,0.49432587236895703,1.0751127945603784,0.0
0.38050734312416556,0.497305769928682,-0.2090036773193935,1.1343465806719526,-0.2589853107314607,0.012541780167881097,0.25974622669244884,0.1838955953884873,0.18310886821067004,0.49367926950755014,1.0792513650260465,0.0
0.4005340453938585,0.493170098596921,-0.2067835665880486,1.1306893536954736,-0.18286134882394833,0.017102096022949008,0.22801579275339562,0.17364617314839734,0.17297563391153417,0.49299801853525244,1.083384373358051,0.0
0.4205607476635514,0.48910305117056724,-0.20335237131768863,1.1282505941500018,-0.12193797727358587,0.021121505954647325,0.2009704965849159,0.16457784554547286,0.16393991032390676,0.49228216726460267,1.087511529487638,0.0
0.44058744993324434,0.48512325949347757,-0.19898958385448426,1.1267604662051633,-0.07450639724192137,0.02462671007748501,0.17526020614188406,0.15926609489480711,0.15870395644307847,0.4915317659365077,1.09163254375678,0.0
0.4606141522029373,0.48124681714527834,-0.19382211740996028,1.1260614003709117,-0.034953291712576696,0.02767891058015036,0.15261002513326768,0.15597419838970925,0.15539655241844516,0.49074686721671645,1.0957471269385064,0.0
0.48064085447263016,0.4774876757876615,-0.1879570678808426,1.1260545052120816,-0.0003447579415066099,0.030266182060870433,0.12936357403600365,0.15296395068170585,0.15240475336244158,0.48992752619212343,1.0998549902572035,0.0
0.5006675567423231,0.4738573098615892,-0.18151829630361438,1.1266498645566496,0.0297679672284001,0.03240375960739822,0.10687887732638873,0.1500250311260823,0.14949242670980017,0.48907380036690284,1.1039558454088796,0.0
0.520694259012016,0.47036466194799975,-0.174632395679471,1.1277599234566897,0.05550294500201062,0.034113361762832806,0.08548010777172893,0.14837513072226946,0.14789678772370257,0.48818574965847245,1.108049404581401,0.0
0.540720961281709,0.4670175222821417,-0.16735698329290122,1.1293358410466148,0.07879587949625394,0.03543880548737016,0.06627218622686792,0.14759260329960175,0.14715210009191104,0.48726343639328856,1.1121353804746905,0.0
0.5607476635514019,0.46382248576123625,-0.15975182604527213,1.131354312392046,0.10092356727155943,0.03641071632830849,0.04859554204691603,0.14508219196897215,0.14463273940994137,0.48630692530247177,1.116213486320892,0.0
0.5807743658210948,0.46078256236468246,-0.1519961698276885,1.1337402419438376,0.11929647758958645,0.037022249978763334,0.030576682522742742,0.1429704584929981,0.14252774328609222,0.4853162835172637,1.1202834359044958,0.0
0.6008010680907877,0.4578995096581448,-0.14415263532688272,1.1364306935636008,0.1345225809881563,0.037279107344073616,0.012842868265514326,0.14126416982771461,0.1408413501266443,0.48429158056431554,1.1243449435824273,0.0
0.6208277703604806,0.45517391142128955,-0.1362799118427617,1.139375045602305,0.14721760193521205,0.03719750083477014,-0.004080325465174197,0.1392585903347041,0.1388552028213647,0.4832328883608088,1.128397724304094,0.0
0.6408544726301736,0.4526044930593646,-0.1284709180962475,1.1425139113062084,0.15694328519517103,0.03679324986746059,-0.020212548365477187,0.13787948035971526,0.13751347976509817,0.48214028120940733,1.1324414936313905,0.0
0.6608811748998665,0.4501892740643838,-0.12076094974904199,1.1458068300665525,0.16464593801720098,0.0360965283859022,-0.03483607407791903,0.136736756220439,0.13640020286606108,0.48101383579304297,1.1364759677586627,0.0
0.6809078771695595,0.447925231085757,-0.11320214893134113,1.1492203114342863,0.170674068386684,0.03513114108019483,-0.04826936528536949,0.13190909687277688,0.1316107742165118,0.47985363116953333,1.1405008635326255,0.0
0.7009345794392524,0.44580426046565547,-0.1060485310050749,1.152611957734314,0.1695823150013792,0.033927905349419224,-0.06016178653877988,0.13611280071414186,0.135841954474206,0.4786597487660336,1.144515898472236,0.0
0.7209612817089452,0.443826838821723,-0.09887108219662294,1.1561068213506782,0.1747431808182193,0.03250901328315556,-0.07094460331318349,0.13149646038192228,0.13127664273905892,0.4774322723733215,1.1485207907885173,0.0
0.7409879839786382,0.44198337051631614,-0.09217341527034503,1.1595690222226842,0.17311004360029456,0.030915482923434386,-0.07967651798605849,0.13709153646548997,0.13689808350775745,0.4761712881399164,1.1525152594043386,0.0
0.7610146862483311,0.44027360049053255,-0.08548850128917924,1.163164870894493,0.17979243359044358,0.02916856679184151,-0.08734580657964366,0.1313822007363207,0.13121498933577802,0.47487688456603344,1.156499023974139,0.0
0.7810413885180241,0.43868572282227214,-0.07939388341301999,1.166725739958531,0.1780434532018969,0.027289401345437215,-0.09395827232021436,0.13393494077894963,0.13380459807122977,0.47354915249737217,1.1604718049036047,0.0
0.801068090787717,0.43721504414866313,-0.07353393368045147,1.1703280294353022,0.1801144738385715,0.025307606499798088,-0.09908974228195698,0.13290230122666757,0.13278289343613733,0.4721881851187405,1.1644333233692916,0.0
0.82109479305741,0.4358531707630007,-0.06809366928312326,1.1739414878575936,0.18067292111456743,0.023232028145594785,-0.10377891771016527,0.13266800037735554,0.1325703920725278,0.4707940779475151,1.1683833013381941,0.0
0.8411214953271028,0.4345920317885536,-0.0630569487223526,1.1775596967407231,0.18091044415647614,0.021080196099391456,-0.10759160231016608,0.13246875324486812,0.13240159692253511,0.46936692882693704,1.1723214615872586,0.0
0.8611481975967957,0.4334232494160866,-0.05843911862334889,1.1811774027907818,0.1808853025029309,0.018876545800546013,-0.11018251494227205,0.13232192664920417,0.13227388001247903,0.4679068379192454,1.1762475277228392,0.0
0.8811748998664887,0.4323382067488497,-0.05425213336184444,1.1847907314692987,0.18066643392584952,0.016636415448828545,-0.1120065175858735,0.13219105481636925,0.1321718497090958,0.46641390769864727,1.1801612242000974,0.0
0.9012016021361816,0.4313281212232485,-0.050504276280061294,1.188396413926948,0.18028412288247264,0.014382913881438733,-0.11267507836949057,0.13211388126967347,0.13210932095452682,0.46488824294412573,1.184062276342339,0.0
0.9212283044058746,0.4303841139333384,-0.04720036449550392,1.1919925479066633,0.17980669898576093,0.012127770003176669,-0.11275719391310328,0.13204332622425774,0.13206498600453007,0.4633299507320861,1.1879504103602934,0.0
0.9412550066755675,0.42949727655422526,-0.04434186895565693,1.1955775812014364,0.1792516647386592,0.009891961447084872,-0.11179042780458973,0.13201934413476626,0.1320524111826572,0.4617391404288412,1.1918253533713281,0.0
0.9612817089452603,0.4286587244372196,-0.04192760585028303,1.1991511033246354,0.17867610615995244,0.007684595063583529,-0.11036831917506713,0.1319916392005058,0.13204647907646594,0.4601159236829352,1.1956868334186013,0.0
0.9813084112149533,0.4278596597965539,-0.03995323203328519,1.2027127264002304,0.17808115377974718,0.00552306126568512,-0.10807668989492042,0.13199972158348855,0.1320660162188143,0.4584604144173082,1.1995345794901475,0.0
1.0013351134846462,0.427091413569346,-0.03841231136039401,1.206262949652637,0.1775111626203237,0.0034164791682797842,-0.10532910487026677,0.1320057932333738,0.13208878293582368,0.45677272882130043,1.2033683215379,0.0
1.0213618157543392,0.4263455024969691,-0.037295553618844096,1.2098022694597628,0.17696599035629798,0.0013781514586829777,-0.10191638547984032,0.12803979637485688,0.12713666639841126,0.45505298534249783,1.2071877904966422,0.0
1.041388518024032,0.42561321167935445,-0.036614540880733716,1.2131986157110688,0.1698173125653005,-0.0013808818778267358,-0.13795166682548568,0.12953591739034243,0.12909648937722143,0.45330130467841884,1.2109927183028915,0.0
1.061415220293725,0.4248868889764139,-0.03631613514702755,1.2165033604482631,0.16523723685972155,-0.004488944569605921,-0.1554031345889592,0.13125708694660287,0.13114860241480628,0.4515178097680436,1.2147828379137142,0.0
1.081441922563418,0.4241558774704888,-0.03655057529625706,1.2197725020975991,0.16345708246680427,-0.0076809216153990905,-0.15959885228965842,0.1317424572551648,0.131848366524895,0.44970262578318554,1.2185578833254664,0.0
1.101468624833111,0.42340801923493704,-0.037392911777587766,1.2230236002816652,0.16255490920330362,-0.010785210546770778,-0.15521444656858444,0.13259450924641952,0.13280934795509822,0.44785588011970645,1.2223175895924638,0.0
1.1214953271028039,0.4226306586924808,-0.03886802712281135,1.2262834567716232,0.1629928244979023,-0.013714760443853837,-0.146477494854153,0.13273151260676422,0.13304995026743213,0.4459777023885754,1.2260616928455754,0.0
1.1415220293724968,0.4218115582667303,-0.04095502128752454,1.2295575425404124,0.16370428843945747,-0.01638687437520646,-0.13360569656763094,0.13401411370443972,0.13436762910080804,0.44406822440677224,1.229789930310744,0.0
1.1615487316421895,0.4209386951673881,-0.043643154967111186,1.2328842189308744,0.1663338195230975,-0.018773753700325593,-0.11934396625595674,0.1347275457925792,0.13511349063770706,0.44212758018803616,1.2335020403274277,0.0
1.1815754339118825,0.4200011444650828,-0.04687753511526276,1.236284884578121,0.17003328236232437,-0.020849740637734097,-0.10379934687042544,0.1333373492897303,0.13371374639857708,0.4401559059334601,1.2371977623669645,0.0
1.2016021361815754,0.41899020561919176,-0.05054694229455242,1.2397179651942012,0.17165403080400898,-0.022622777358552146,-0.08865183604090215,0.13324449807138963,0.13363401632727134,0.4381533400219318,1.2408768370508576,0.0
1.2216288384512684,0.41789779143368044,-0.05462070927556662,1.2431807043171683,0.17313695614835717,-0.024082655788759094,-0.0729939215103478,0.1324494532100174,0.1328148321257544,0.43612002300042185,1.244539006168978,0.0
1.2416555407209613,0.4167175134995348,-0.05901389670728155,1.2466490060053501,0.17341508440908504,-0.025248978245343782,-0.058316122829234346,0.1322784851041608,0.13263826826885677,0.4340560975741196,1.2481840126976884,0.0
1.2616822429906542,0.41544384486568725,-0.06368343169237553,1.2501175793766357,0.1734286685642768,-0.026126486895671965,-0.043875432516409164,0.13105808456359389,0.13139786077717433,0.43196170859641764,1.2518116008178803,0.0
1.2817089452603472,0.41407321985529544,-0.06853125051959089,1.2535498621268681,0.1716141375116251,-0.026731441872028618,-0.030247748817832435,0.13149795728155753,0.13181315414215986,0.42983700305874556,1.2554215159329298,0.0
1.3017356475300401,0.41260198861051983,-0.07356156223878117,1.256958465709481,0.1704301791306392,-0.02708374080325365,-0.01761494656125168,0.13188937648789809,0.13218972444078186,0.4276821300802533,1.2590135046865651,0.0
1.321762349799733,0.41102758432170944,-0.07872021444051931,1.2603547214834854,0.1698127887002241,-0.027195474583362647,-0.005586689005449981,0.13212947694011407,0.13240595267061447,0.4254972408973459,1.262587314980648,0.0
1.341789052069426,0.40934854592372605,-0.08395191989917042,1.263745357829972,0.16953181732432973,-0.0270859378940524,0.005476834465512609,0.13208430931111861,0.1323271271885864,0.4232824888530689,1.266142695992867,0.0
1.361815754339119,0.4075645877105572,-0.08919791065844283,1.2671285265008356,0.16915843354318466,-0.026782235013214244,0.015185144041907647,0.13219260387105,0.13241611562581532,0.42103802938634616,1.2696793981943417,0.0
1.3818424566088119,0.4056761621954356,-0.09442127575608003,1.270507162320618,0.16893179098912176,-0.026299969388526884,0.02411328123436779,0.13218384947273484,0.13238162012564308,0.4187640200210709,1.2731971733671346,0.0
1.4018691588785048,0.40368457968052734,-0.09957912574541478,1.273880654962916,0.16867463211489453,-0.025659882375608182,0.032004350645934945,0.1320171272026195,0.13218436072888445,0.4164606203550497,1.276695774621672,0.0
1.4218958611481975,0.40159197377170186,-0.10463029544127525,1.2772436627121688,0.16815038746263564,-0.024886537027138445,0.03866726742348748,0.1320509130076035,0.13219427364786512,0.4141279920488021,1.2801749564140723,0.0
1.4419225634178905,0.3994009326577928,-0.10955205569545308,1.2805969020175307,0.16766196526809887,-0.02399914579954041,0.04436956137990142,0.1320181311231476,0.1321421556628977,0.4117662988142137,1.283634474563378,0.0
1.4619492656875834,0.39711461237997325,-0.11431601389097774,1.2839391953654968,0.16711466739830308,-0.023013276390701366,0.04929347044195243,0.1324929335228625,0.132594911137513,0.40937570640304727,1.287074086268695,0.0
1.4819759679572764,0.39473625043935817,-0.11891809703075504,1.287284369920177,0.16725872773400674,-0.021946652502836537,0.05333119439324137,0.13299186055200757,0.13307554049836795,0.4069563825953091,1.2904935501262298,0.0
1.5020026702269693,0.39226947733773126,-0.12333865508134617,1.290647014653378,0.1681322366600474,-0.02081398350251491,0.05663345001608133,0.13275002521177207,0.13281287260431174,0.4045084971874737,1.2938926261462367,0.0
1.5220293724966623,0.389718752134101,-0.12753626018151368,1.2940197260366244,0.1686355691623284,-0.01963199407315477,0.0590994714680069,0.13667763615381787,0.13723972710675975,0.4020322219805673,1.2972710757698567,0.0
1.5420560747663552,0.38708604117903195,-0.13163554775345304,1.2975263247999516,0.17532993816636225,-0.01800133367104134,0.08153302010567148,0.13780334253818652,0.1381102710899142,0.3995277307681099,1.3006286618858631,0.0
1.5620827770360481,0.3843756553975382,-0.13551928907468597,1.3011963246428528,0.18349999214506613,-0.016126541644425466,0.09373960133079368,0.13530726295301182,0.1354231876476827,0.3969951993239177,1.3039651488473027,0.0
1.582109479305741,0.3815957363177543,-0.13899595398919673,1.304952890390726,0.18782828739364993,-0.01416065045244605,0.09829455959897083,0.1319672030943213,0.132003244480221,0.39443480538976705,1.3072803024880322,0.0
1.602136181575434,0.37875549792675417,-0.14201191955000508,1.3086959134568004,0.18715115330372137,-0.01216765350950506,0.09964984714704944,0.13078825562604304,0.13072466932018742,0.39184672866291986,1.3105738901391553,0.0
1.622162883845127,0.3758632052494338,-0.14461463386602016,1.3123891157400545,0.18466011416270386,-0.010227278789209496,0.09701873601477813,0.12862636416153403,0.12847971204656505,0.3892311507835117,1.3138456806453502,0.0
1.64218958611482,0.37292742391933,-0.1467890665051893,1.3159673674222747,0.1789125841110167,-0.008405928441928301,0.09106751736405962,0.12899430323071012,0.12880832780223617,0.38658825532180363,1.3170954443810947,0.0
1.6622162883845129,0.36995547439387144,-0.14859747627292605,1.3194411925258396,0.1736912551782381,-0.006734947963576359,0.08354902391759722,0.1297994045101362,0.12961550522028736,0.3839182277652987,1.3203229532667808,0.0
1.6822429906542056,0.36695414074801813,-0.15006668229266565,1.322834651395165,0.16967294346627176,-0.005212535183092601,0.07612063902418793,0.1304824524069355,0.1302961244305812,0.38122125550572394,1.3235279807847222,0.0
1.7022696929238985,0.36392973253686245,-0.15122041055778426,1.3261680792659374,0.16667139353861896,-0.0038404952507704155,0.0686019966161093,0.1310316701357661,0.13084542953484063,0.37849752782587825,1.3267103019950528,0.0
1.7222963951935915,0.36088806558727315,-0.15208334747946514,1.3294578482770856,0.16448845055740502,-0.0026186205906126307,0.06109373300788922,0.13155558639530807,0.13137249854315103,0.37574723588634806,1.329869693551513,0.0
1.7423230974632844,0.35783441751214173,-0.15268240375657147,1.3327195980507973,0.1630874886855913,-0.0015442533216544017,0.053718363447911484,0.13173341394792992,0.1315544165396744,0.3729705727120911,1.3330059337171258,0.0
1.7623497997329773,0.35477354403745565,-0.15304367373430577,1.3359587025520965,0.1619552250649572,-0.0006139895610524598,0.046513188030097075,0.1316399340616204,0.13146842599368475,0.37016773317888907,1.336118802379758,0.0
1.7823765020026703,0.35170964555247736,-0.1531949242489134,1.3391725353447292,0.16069163963163519,0.00017828897795191877,0.03961392695021893,0.1314893370569644,0.13133254705219294,0.3673389139996707,1.339208081067569,0.0
