time,x,x_dot,z,z_dot,theta,theta_dot,u1,u2,x_ref,z_ref,theta_ref
0.0,0.45979699052943523,0.03868299136037606,1.4419210172345827,-0.08806958799104517,0.07620838829026134,0.08447950380264324,0.06192965505395302,0.05632337490511503,0.5,1.0,0.0
0.020026702269692925,0.46070335192837314,0.045318069946896355,1.4379879820813952,-0.19665175765937,0.07341148890485286,-0.1398449692704244,0.06027351218524715,0.05632337490635634,0.4999824541392403,1.0041887412073853,0.0
0.04005340453938585,0.46174035394778196,0.051850100970441744,1.4318610760371064,-0.3063453022144428,0.06745704299905939,-0.2977222952896724,0.05932826375496066,0.056323374905604594,0.4999298177883902,1.0083771884344908,0.0
0.06008010680907877,0.4629019357941343,0.058079092317617285,1.4235293372712168,-0.41658693829448856,0.059104910920950444,-0.41760660390544635,0.057854618217602585,0.05632337490554265,0.49984209464164997,1.0125650477216688,0.0
0.0801068090787717,0.46417621632316525,0.06371402645154611,1.4129747461552575,-0.5277295557979608,0.04953729946732386,-0.47838057268132994,0.05691509418725169,0.05632337490491428,0.49971929085573213,1.0167520251505358,0.0
0.10013351134846463,0.46554803262959643,0.06859081532155854,1.4001877645899337,-0.6393490782661944,0.03950765042868938,-0.5014824519317238,0.05633674311124245,0.05632337498992216,0.4995614150494292,1.0209378268645999,0.0
0.12016021361815754,0.4670006916646798,0.07263295175416865,1.3851645817651774,-0.7511591412378087,0.029479355354603422,-0.5014147537042977,0.05632337490510427,0.05667186804655739,0.49936847830300873,1.0251221590898847,0.0
0.14018691588785048,0.4685174303046286,0.07583693199744126,1.3679151847740874,-0.8624698495545045,0.019741885560744157,-0.4868734896929633,0.056323377395686096,0.057156154832532544,0.499140494157436,1.0293047281555483,0.0
0.1602136181575434,0.4700814578760758,0.07820137857235826,1.348451982698161,-0.9731601037963235,0.01068218883988495,-0.45298483604296014,0.05632337490534721,0.05723844996311005,0.4988774786134233,1.0334852405144925,0.0
0.1802403204272363,0.4716762242008604,0.0797383162392312,1.3267816222527227,-1.0835180222719087,0.002365052485704092,-0.415856817709043,0.10015314283453719,0.1013910934224215,0.49857945013030697,1.0376634027639664,0.0
0.20026702269692925,0.47330022331382826,0.08119995564839166,1.3042131032554996,-1.1284259498611573,-0.004952336952786229,-0.36586947192451597,0.14214798270991325,0.14366875566777687,0.4982464296247522,1.0418389216661577,0.0
0.22029372496662217,0.4749314677711952,0.0815622228683484,1.2819973754817215,-1.1107863886889053,-0.011045144917361829,-0.30464039822878,0.16971351681219027,0.17112467665209893,0.4978784404692846,1.0460115041687736,0.0
0.24032042723631508,0.4765349472602764,0.08017397445406034,1.2609486077769303,-1.0524383852395633,-0.016002686825565004,-0.247877095410159,0.1860857977192303,0.187303927989309,0.4974755084906501,1.0501808574256075,0.0
0.260347129506008,0.4780746928215542,0.07698727806388897,1.2415458146820268,-0.9701396547451749,-0.019980787370697,-0.19890502725659964,0.1948484325862549,0.195870740062627,0.4970376619680023,1.0543466888170925,0.0
0.28037383177570097,0.4795193813009524,0.07223442396991107,1.2240413409330473,-0.8752236874489754,-0.023137232914336545,-0.15782227718197725,0.19811028941657705,0.19895575401118645,0.4965649316309177,1.0585087059708387,0.0
0.30040053404539385,0.48084437068989694,0.06624946944722725,1.208524454407165,-0.7758443262941133,-0.02561438646937312,-0.12385767775182871,0.19807892123683965,0.1987695227092617,0.49605735065723894,1.0626666167821521,0.0
0.3204272363150868,0.48203145758520083,0.05935434476519384,1.1949873099953776,-0.6768572205893704,-0.027536833367179783,-0.0961223448903332,0.19514945377422976,0.1957349961530374,0.49551495467074635,1.066820129434536,0.0
0.34045393858477974,0.4830686359156404,0.05185891652197858,1.1833373347537801,-0.5824987620798798,-0.02898916143799599,-0.07261640354081038,0.1911313035353845,0.19159539545393195,0.4949377817386579,1.0709689524201722,0.0
0.3604806408544726,0.48394838446088695,0.0439874272623267,1.1734500054219523,-0.4943664665913939,-0.030068970132827978,-0.053990434741598856,0.18643167092420737,0.18682880012172548,0.49432587236895703,1.0751127945603784,0.0
0.38050734312416556,0.4846667985266991,0.03592070329060747,1.1651819731554605,-0.4134016133245935,-0.030830165168456266,-0.03805975178141485,0.1812861451545695,0.18162516985228847,0.49367926950755014,1.0792513650260465,0.0
0.4005340453938585,0.4852227589982444,0.02779802357726747,1.158377333594975,-0.3402319780242716,-0.03131950839175454,-0.024467161164913695,0.17628441444224174,0.17658796940259777,0.49299801853525244,1.083384373358051,0.0
0.4205607476635514,0.48561697634642564,0.01971086740906062,1.1528852507784482,-0.274604140826337,-0.03156560662300202,-0.012304911562373833,0.17225149880628016,0.17254282092706905,0.49228216726460267,1.087511529487638,0.0
0.44058744993324434,0.4858508355951868,0.011692962438059841,1.1485843301723515,-0.21504603030483516,-0.031578447863521826,-0.0006420620259901758,0.1677015298928075,0.16797114939656407,0.4915317659365077,1.09163254375678,0.0
0.4606141522029373,0.4859275200237771,0.0038342214295133455,1.145338042618141,-0.16231437771052282,-0.031375583221466066,0.010143232102787591,0.1636820238571367,0.16394443233623415,0.49074686721671645,1.0957471269385064,0.0
0.48064085447263016,0.4858508855065376,-0.003831725861975827,1.1430260791613884,-0.1155981728376233,-0.0309629557383245,0.02063137415707801,0.15971199552532347,0.159961908647324,0.48992752619212343,1.0998549902572035,0.0
0.5006675567423231,0.48562575183765405,-0.011256683444177462,1.141529758003241,-0.0748160579073672,-0.0303507346870393,0.030611052564259993,0.1561407220109975,0.1563782353454219,0.48907380036690284,1.1039558454088796,0.0
0.520694259012016,0.4852574790938802,-0.018413637188693044,1.140742415767458,-0.03936711178915297,-0.029549007773238337,0.0400863456900485,0.15239780724193241,0.15262174310502147,0.48818574965847245,1.108049404581401,0.0
0.540720961281709,0.48475238568048606,-0.025254670669704066,1.140552457804557,-0.00949789814504513,-0.028568799318699337,0.049010422726949596,0.1480190422045566,0.1482148546070916,0.48726343639328856,1.1121353804746905,0.0
0.5607476635514019,0.48411804585266033,-0.031716991391285726,1.1408293904093216,0.013846630238236578,-0.027432763616477486,0.056801785111092795,0.1486288551826259,0.1488177493350023,0.48630692530247177,1.116213486320892,0.0
0.5807743658210948,0.48335835644486824,-0.03798447038960522,1.1415909119984184,0.038076079454844404,-0.026146573141492466,0.06430952374925072,0.1438665615501855,0.14402174956081898,0.4853162835172637,1.1202834359044958,0.0
0.6008010680907877,0.48248232108323463,-0.04380176808167907,1.1426951988905454,0.055214344606349185,-0.024737327484483814,0.0704622828504324,0.14356762159423644,0.1436976224893901,0.48429158056431554,1.1243449435824273,0.0
0.6208277703604806,0.4814957745219095,-0.049327328066255574,1.144132866848909,0.07188339791818242,-0.023225288050055033,0.07560197172143913,0.14345218757683653,0.14355818369374107,0.4832328883608088,1.128397724304094,0.0
0.6408544726301736,0.48040491347847386,-0.054543052171781854,1.1458999889942163,0.0883561072653635,-0.02162975290108517,0.07977675744849326,0.14187529425011833,0.14194607171404994,0.48214028120940733,1.1324414936313905,0.0
0.6608811748998665,0.47921736773411844,-0.05937728721777099,1.147949177625018,0.1024594315400817,-0.019978974110426987,0.08253893953290917,0.14058982526690036,0.1406273533535411,0.48101383579304297,1.1364759677586627,0.0
0.6809078771695595,0.4779407781041382,-0.06382948149901146,1.1502417386670782,0.11462805210301705,-0.018299602517188124,0.08396857966194311,0.13947162469692298,0.13947612347136293,0.47985363116953333,1.1405008635326255,0.0
0.7009345794392524,0.4765827849367588,-0.0678996583689696,1.1527439595152886,0.1251110424105217,-0.016618088218272337,0.08407571494578943,0.13857354278262707,0.1385508589148166,0.4786597487660336,1.144515898472236,0.0
0.7209612817089452,0.4751509071312202,-0.07159389027693079,1.1554287529242697,0.134239670449055,-0.014956179298969583,0.08309544596513763,0.13774712231806882,0.13769807280674173,0.4774322723733215,1.1485207907885173,0.0
0.7409879839786382,0.473652539296804,-0.07491839172080898,1.1582711778410493,0.14212124583897218,-0.01333494993929324,0.08106146798381696,0.13708422760312652,0.13701480522338877,0.4761712881399164,1.1525152594043386,0.0
0.7610146862483311,0.47209483204913966,-0.07788536238321633,1.1612512357439972,0.14900289514739518,-0.011770660529261468,0.07821447050158871,0.136462798693828,0.13637491190276843,0.47487688456603344,1.156499023974139,0.0
0.7810413885180241,0.47048468168046786,-0.08050751843359041,1.1643501895516046,0.1549476903803744,-0.010278029777605958,0.07463153758277546,0.1359694158062164,0.1358684415257954,0.47354915249737217,1.1604718049036047,0.0
0.801068090787717,0.4688286423232578,-0.08280196786050209,1.1675531798344345,0.16014951414149767,-0.008867461582736255,0.07052840974348507,0.13551519274032728,0.13540528695541898,0.4721881851187405,1.1644333233692916,0.0
0.82109479305741,0.46713291509811417,-0.08478636125718247,1.170846570496648,0.16466953311067017,-0.007546025970955444,0.06607178058904066,0.13508671241250378,0.13496537743731873,0.4707940779475151,1.1683833013381941,0.0
0.8411214953271028,0.46540331949025726,-0.08647978039284608,1.174217452865217,0.16854411842845363,-0.006322785250720321,0.061162036011756106,0.13474073075110307,0.13461631480029818,0.46936692882693704,1.1723214615872586,0.0
0.8611481975967957,0.4636452577362143,-0.08790308770214988,1.1776554888113093,0.17190179730461425,-0.005200115661930128,0.05613347943950968,0.13438553673511025,0.13425391425638444,0.4679068379192454,1.1762475277228392,0.0
0.8811748998664887,0.4618637104494342,-0.08907736433900601,1.181150007461536,0.1747259325113347,-0.004183692540892567,0.05082115605187802,0.13412429976883572,0.1339943914710204,0.46641390769864727,1.1801612242000974,0.0
0.9012016021361816,0.4600632124853841,-0.090024898202503,1.1846932572683504,0.17716249034072631,-0.0032720504675392745,0.045582103667664596,0.13381603998622357,0.13368182779774726,0.46488824294412573,1.184062276342339,0.0
0.9212283044058746,0.45824786152261,-0.09076754813870627,1.1882760058662598,0.17913742989547185,-0.0024685406576424236,0.04017549049484259,0.13362898744543047,0.13349957962366488,0.4633299507320861,1.1879504103602934,0.0
0.9412550066755675,0.4564213055020904,-0.09132780102597754,1.1918927517411975,0.18083729374688695,-0.0017692257046918757,0.034965747647527363,0.1333522226379338,0.13322375459628072,0.4617391404288412,1.1918253533713281,0.0
0.9612817089452603,0.4545867578277197,-0.09172738371853643,1.1955352797489263,0.18212640038643596,-0.0011732641735389246,0.029798076557647584,0.13324603153171136,0.13312739739859453,0.4601159236829352,1.1956868334186013,0.0
0.9813084112149533,0.45274699523025314,-0.09198812987332589,1.1992005663477487,0.18326432994111858,-0.0006727009080451703,0.02502816327468771,0.13292892525913308,0.1328074134773215,0.4584604144173082,1.1995345794901475,0.0
1.0013351134846462,0.45090438729912924,-0.09213039655619455,1.2028791513868664,0.18392925195587959,-0.0002697575289686688,0.02014716895382507,0.13283434603315064,0.13272291224884536,0.45677272882130043,1.2033683215379,0.0
1.0213618157543392,0.4490609101662032,-0.092173856646302,1.2065683688848268,0.18446087489802088,4.3709980670118006e-05,0.015673375481939342,0.13360970123777788,0.13202050447699737,0.45505298534249783,1.2071877904966422,0.0
1.041388518024032,0.4472181503604465,-0.09213799028783426,1.2102692885749622,0.18504598450677076,-0.0009144345603297362,-0.0479072270499927,0.13445093718958845,0.13356787962878966,0.45330130467841884,1.2109927183028915,0.0
1.061415220293725,0.4453773430615587,-0.09204036494438936,1.2140172846327966,0.1873998028917139,-0.0025782215884421304,-0.0831893514056197,0.13330885575451704,0.13287849826652215,0.4515178097680436,1.2147828379137142,0.0
1.081441922563418,0.44353470978394627,-0.09213166388062032,1.2177851709883027,0.18839431777531052,-0.004584852373345257,-0.10033153924515634,0.1305621578691289,0.13040690711553526,0.44970262578318554,1.2185578833254664,0.0
1.101468624833111,0.44168389182533263,-0.09254089793068206,1.2214956064073241,0.1855217709510672,-0.0067139171437996135,-0.10645323852271778,0.13061061910677788,0.1306450028070766,0.44785588011970645,1.2223175895924638,0.0
1.1214953271028039,0.43981711609585034,-0.09333878647411467,1.225152871053984,0.18286323233299848,-0.008813590447912259,-0.10498366520563228,0.13121361518402225,0.13137685046824382,0.4459777023885754,1.2260616928455754,0.0
1.1415220293724968,0.43792602191730756,-0.09455470892713766,1.228776750640268,0.18119397931419554,-0.010780819728783838,-0.09836146404357879,0.1316865057665778,0.13192936596489988,0.44406822440677224,1.229789930310744,0.0
1.1615487316421895,0.43600232948838147,-0.09618462144630363,1.2323824072370462,0.18028282983890828,-0.012552032643916565,-0.08856064575663664,0.1319730145947194,0.1322617606612779,0.44212758018803616,1.2335020403274277,0.0
1.1815754339118825,0.43403828881406786,-0.09820203371568093,1.2359789516715867,0.17982722172702909,-0.014090706610038296,-0.07693369830608632,0.13211041470084461,0.13241398626984988,0.4401559059334601,1.2371977623669645,0.0
1.2016021361815754,0.43202695268985203,-0.10056680621079064,1.2395706006446903,0.17958244865517767,-0.015385197968593953,-0.06472456792778299,0.13211539080732532,0.13242513765090913,0.4381533400219318,1.2408768370508576,0.0
1.2216288384512684,0.4299623354917999,-0.10323085990260612,1.2431575147804315,0.1793457067870568,-0.016430789438523358,-0.052279573496469986,0.13223330293536537,0.1325400384634164,0.43612002300042185,1.244539006168978,0.0
1.2416555407209613,0.4278393646735684,-0.10614854091157386,1.2467430693681376,0.17927772938530606,-0.017230112416531707,-0.03996614890041769,0.13211986415484614,0.13241051380016283,0.4340560975741196,1.2481840126976884,0.0
1.2616822429906542,0.4256540572317836,-0.10926537208924089,1.2503235974543299,0.17902640430961433,-0.017796250737510663,-0.028306916048947826,0.13217124910554756,0.13244832803309664,0.43196170859641764,1.2518116008178803,0.0
1.2817089452603472,0.42340332101098066,-0.11253681104014897,1.2539003684689058,0.178838550728801,-0.018140260220823004,-0.01720047416561675,0.13211613567881003,0.1323748344466984,0.42983700305874556,1.2554215159329298,0.0
1.3017356475300401,0.4210850369672283,-0.1159142021876166,1.2574714377188325,0.1785534624963325,-0.018277030760789258,-0.006838526998313183,0.13204016905581253,0.13226893674275925,0.4276821300802533,1.2590135046865651,0.0
1.321762349799733,0.41869797461356656,-0.1193531176830894,1.2610340881567907,0.17813252189791093,-0.01823067698823317,0.0023176886278047145,0.13190724970186726,0.1321148007004664,0.4254972408973459,1.262587314980648,0.0
1.341789052069426,0.4162417458901749,-0.12281143616958363,1.2645840618431567,0.17749868431830296,-0.01801831958594024,0.0106178701146466,0.13196327619574505,0.13215157008669454,0.4232824888530689,1.266142695992867,0.0
1.361815754339119,0.4137165770083852,-0.12625844408948184,1.2681227448886205,0.1769341522731942,-0.01765549876402885,0.018141041095569327,0.13194550048425968,0.132113474580763,0.42103802938634616,1.2696793981943417,0.0
1.3818424566088119,0.41112338378665586,-0.12965966108646776,1.2716493314440886,0.17632932777341126,-0.01715859419596844,0.024845228403020607,0.13187672922937155,0.1320184794352232,0.4187640200210709,1.2731971733671346,0.0
1.4018691588785048,0.40846369755336687,-0.1329843116644487,1.275161428567355,0.1756048561633085,-0.016548696877438072,0.03049486592651832,0.13177657545553423,0.13189799340452107,0.4164606203550497,1.276695774621672,0.0
1.4218958611481975,0.4057395846084092,-0.13620564724788384,1.2786558119894085,0.17471917110267876,-0.015842168014617193,0.035326443141043905,0.13173059218714583,0.1318312896530509,0.4141279920488021,1.2801749564140723,0.0
1.4419225634178905,0.40295352031646114,-0.139303214597403,1.282130866421298,0.1737527215944737,-0.015055666389577359,0.03932508125199133,0.13151482283916316,0.13159059898727773,0.4117662988142137,1.283634474563378,0.0
1.4619492656875834,0.4001084333016176,-0.14225435074217724,1.2855798906736549,0.1724512126178376,-0.014209197809473146,0.04232342900521087,0.1317554792003349,0.1318198035561764,0.40937570640304727,1.287074086268695,0.0
1.4819759679572764,0.3972073437461269,-0.1450544777745368,1.2890099153297492,0.17150123280471777,-0.013311975598341947,0.044861110556559836,0.1316083807439607,0.1316511556569868,0.4069563825953091,1.2904935501262298,0.0
1.5020026702269693,0.39425368035881647,-0.14768316936551953,1.2924163271734121,0.17032059218315188,-0.012381283448623485,0.0465346074859231,0.1318344048082017,0.13186781005060588,0.4045084971874737,1.2938926261462367,0.0
1.5220293724966623,0.39125090822931685,-0.15013860647498203,1.2958057528912228,0.16947128589053265,-0.011424646317773237,0.04783185654251249,0.13407481328397652,0.13463508519405293,0.4020322219805673,1.2972710757698567,0.0
1.5420560747663552,0.3882017949710973,-0.15245566291097676,1.2992524354062043,0.17233412574906967,-0.010020593779826769,0.07020262689732341,0.13261814715405382,0.13288043735294466,0.3995277307681099,1.3006286618858631,0.0
1.5620827770360481,0.3851107465366949,-0.15455242172011852,1.3027087818081686,0.17281732009821552,-0.00840791138613997,0.08063411968433988,0.13228239356487403,0.1323790091720566,0.3969951993239177,1.3039651488473027,0.0
1.582109479305741,0.3819834550716699,-0.1563645732512507,1.3061624348807952,0.1726826536313269,-0.006719330782880059,0.08442903016299556,0.13146184855272966,0.1314480473832667,0.39443480538976705,1.3072803024880322,0.0
1.602136181575434,0.3788265001558157,-0.1578477457927097,1.3095875051365211,0.1712535127862937,-0.005043256016077984,0.08380373834010375,0.1316279139733469,0.13156115876588004,0.39184672866291986,1.3105738901391553,0.0
1.622162883845127,0.3756464598866683,-0.15900201345737083,1.312988206522858,0.17003506931684081,-0.003422038569083107,0.08106087234974382,0.1312935150669784,0.1311798972415844,0.3892311507835117,1.3138456806453502,0.0
1.64218958611482,0.3724499452952786,-0.15982572956948543,1.3163539995612668,0.16828965192043438,-0.0018931173707193117,0.07644605991818974,0.1316081809389382,0.13145977151643168,0.38658825532180363,1.3170954443810947,0.0
1.6622162883845129,0.3692432447230631,-0.16033502861077623,1.3196937552123325,0.1669877825532801,-0.0004842402125225844,0.07044385790983637,0.13219391467443584,0.13201548865237234,0.3839182277652987,1.3203229532667808,0.0
1.6822429906542056,0.3660322933312092,-0.16054756959269426,1.3230244269048164,0.16653358462419326,0.0007806897705954405,0.06324649915590125,0.1320924402229752,0.1319082006724139,0.38122125550572394,1.3235279807847222,0.0
1.7022696929238985,0.3628226109845,-0.16048411733545645,1.3263429378464564,0.165925547081999,0.0018971522853043256,0.05582312573544423,0.13198370512911295,0.13179525682430288,0.37849752782587825,1.3267103019950528,0.0
1.7222963951935915,0.35961913992599903,-0.16017355292505014,1.3296460164297128,0.16515392916282282,0.002861913220592013,0.04823804676438438,0.13188231299658015,0.13169935032017624,0.37574723588634806,1.329869693551513,0.0
1.7423230974632844,0.35642622946897484,-0.15964552285120948,1.3329307511068025,0.1642367338544875,0.003679495043597885,0.040879091150293645,0.13194203728588833,0.13176735880111834,0.3729705727120911,1.3330059337171258,0.0
1.7623497997329773,0.35324763931371633,-0.15892950776292666,1.3361990459900728,0.16341474416351376,0.004356653322447935,0.03385791394250251,0.13178743112120214,0.13162105774163138,0.37016773317888907,1.336118802379758,0.0
1.7823765020026703,0.3500865303257178,-0.1580554493999266,1.3394464517879887,0.1623702898957976,0.004900152859813248,0.02717497686826556,0.13161136325087494,0.1314436263107251,0.3673389139996707,1.339208081067569,0.0
