time,x,x_dot,z,z_dot,theta,theta_dot,u1,u2,x_ref,z_ref,theta_ref
0.0,0.8063436218297209,-0.08646434752767339,1.172730814100364,-0.005491058804152682,0.0709711107755254,-0.09206838897907708,0.09081477993626563,0.05632337490488385,0.5,1.0,0.0
0.020026702269692925,0.804768909607891,-0.07873561109149238,1.1708753299764345,-0.09277420619647313,0.041536619489245516,-1.4717245643139956,0.05632337515113929,0.056323374986014606,0.4999824541392403,1.0041887412073853,0.0
0.04005340453938585,0.8033125374653961,-0.0728186071247487,1.1667644854826524,-0.2055422246891067,0.012102128202965594,-1.4717245643139956,0.05632337497241896,0.05855500733698818,0.4999298177883902,1.0083771884344908,0.0
0.06008010680907877,0.8019268362519767,-0.0692850606709685,1.1604340750308082,-0.31652052259221275,-0.015547830984941257,-1.3824979593953428,0.056323374935097745,0.0564335518330217,0.49984209464164997,1.0125650477216688,0.0
0.0801068090787717,0.8005613508234617,-0.06827427142575257,1.1518540152487704,-0.4290029891018885,-0.04310968283939697,-1.3780925927227854,0.05632337490502233,0.058023035469324614,0.49971929085573213,1.0167520251505358,0.0
0.10013351134846463,0.7991695281053833,-0.0695911359039162,1.1410477716227776,-0.5403121812996434,-0.06931232319053572,-1.3101320175569378,0.16696076960316691,0.1716984554813704,0.4995614150494292,1.0209378268645999,0.0
0.12016021361815754,0.7975614836073635,-0.08040222490099579,1.1313340403536356,-0.48568656345710376,-0.09172611588171295,-1.1206896345588604,0.05632338086286458,0.06247469247806843,0.49936847830300873,1.0251221590898847,0.0
0.14018691588785048,0.7958315490509786,-0.08649672781923864,1.1194560546078494,-0.5938992872893119,-0.10922009534268186,-0.874698973048444,0.2914374169224245,0.2966828860223001,0.499140494157436,1.0293047281555483,0.0
0.1602136181575434,0.7933035348577018,-0.12640070966384206,1.1123343341813945,-0.3560860213227437,-0.12251834163528705,-0.6649123146302609,0.07535880757122054,0.07983551857494847,0.4988774786134233,1.0334852405144925,0.0
0.1802403204272363,0.7905249034938858,-0.13893156819079866,1.1035780891199531,-0.4378122530720689,-0.13223553579087952,-0.4858597077796236,0.2921140291922333,0.2966828864877343,0.49857945013030697,1.0376634027639664,0.0
0.20026702269692925,0.7866802264731281,-0.1922338510378875,1.0995593744422263,-0.20093573388634053,-0.13829781667237415,-0.30311404407472997,0.14428252659829796,0.14715354454478605,0.4982464296247522,1.0418389216661577,0.0
0.22029372496662217,0.7822662755490174,-0.22069754620553336,1.0959005371257395,-0.18294186582433386,-0.1420633254019477,-0.1882754364786791,0.24028570302049634,0.2442661938702631,0.4978784404692846,1.0460115041687736,0.0
0.24032042723631508,0.7768627089658585,-0.2701783291579459,1.0954317063093588,-0.02344154081903449,-0.14264446402752223,-0.029056931278727383,0.14234339531696782,0.14436356660606806,0.4974755084906501,1.0501808574256075,0.0
0.260347129506008,0.7708577545498879,-0.30024772079853257,1.0952475964731967,-0.009205491808109149,-0.1416094658947192,0.05174990664015294,0.185699881577131,0.18755450294046003,0.4970376619680023,1.0543466888170925,0.0
0.28037383177570097,0.7640666920372288,-0.33955312563295964,1.0966170189762674,0.06847112515353973,-0.13909077146593665,0.12593472143912524,0.11776500732972163,0.11969699072656516,0.4965649316309177,1.0585087059708387,0.0
0.30040053404539385,0.7567791170593013,-0.36437874889637295,1.0975491827071777,0.04660818654551542,-0.1350264952221399,0.20321381218983725,0.16910987979121722,0.17071125821102548,0.49605735065723894,1.0626666167821521,0.0
0.3204272363150868,0.7487935609199184,-0.39927780696914583,1.0995471138891877,0.09989655910050306,-0.12968112682332814,0.26726841994058814,0.12337591904356361,0.12483799154655668,0.49551495467074635,1.066820129434536,0.0
0.34045393858477974,0.7403129869426628,-0.42402869886278227,1.1012688170594949,0.08608515851535865,-0.12316611713237975,0.3257504845474207,0.14146708575612554,0.14267843370127076,0.4949377817386579,1.0709689524201722,0.0
0.3604806408544726,0.7312880408604472,-0.4512473041107779,1.1032447365367715,0.0987959738638282,-0.11568204965167803,0.3742033740350862,0.12228887420757686,0.12334212898253685,0.49432587236895703,1.0751127945603784,0.0
0.38050734312416556,0.721816028337835,-0.4736006261306091,1.1049120672629913,0.08336653631099611,-0.10735540194855155,0.4163323851563249,0.11250768575732684,0.11335053385931562,0.49367926950755014,1.0792513650260465,0.0
0.4005340453938585,0.7119578009157103,-0.49291137110623523,1.105983081675853,0.05355072064308339,-0.09835449913859477,0.4500451404978357,0.11893271322409527,0.11984102150366698,0.49299801853525244,1.083384373358051,0.0
0.4205607476635514,0.7017205447545617,-0.5118628080574267,1.1066511197971252,0.03340190606361258,-0.08862697913987477,0.48637599993600156,0.11510604671334594,0.1156939921374296,0.49228216726460267,1.087511529487638,0.0
0.44058744993324434,0.6911475309477775,-0.5286506903392095,1.106801892792209,0.007538649754192273,-0.07842912505536327,0.509892704225575,0.11204219356971173,0.11263395011863273,0.4915317659365077,1.09163254375678,0.0
0.4606141522029373,0.6802799051352812,-0.5433812906248107,1.106348137411091,-0.02268776905589277,-0.06775789034768125,0.5335617353841017,0.10899943553594066,0.10935574074086278,0.49074686721671645,1.0957471269385064,0.0
0.48064085447263016,0.6691588296329118,-0.5560537751184718,1.1051993295138935,-0.057440394859872956,-0.0568016277056452,0.5478131321018013,0.11444197054983846,0.11471184361316558,0.48992752619212343,1.0998549902572035,0.0
0.5006675567423231,0.6578079007872493,-0.5675464422831279,1.1035176027681115,-0.08408633728910636,-0.04562947957100951,0.5586074067317847,0.11823952799409775,0.1185322322498739,0.48907380036690284,1.1039558454088796,0.0
0.520694259012016,0.646257834304546,-0.577503324135165,1.1014179486116369,-0.10498270782372802,-0.034223182645375286,0.5703148462817106,0.12268786545185097,0.1226846484533094,0.48818574965847245,1.108049404581401,0.0
0.540720961281709,0.6345419554465184,-0.5857939429013783,1.0990296591866198,-0.11941447125085865,-0.02281945915115888,0.5701861747108206,0.16567240661659877,0.16592163232990403,0.48726343639328856,1.1121353804746905,0.0
0.5607476635514019,0.6226579878733827,-0.5941983786567853,1.09763099749613,-0.0699330845244902,-0.011216368050371859,0.5801545550393512,0.10890804749870414,0.1082946542232957,0.48630692530247177,1.116213486320892,0.0
0.5807743658210948,0.6107005978109036,-0.5978695031239528,1.0955293158418267,-0.10508408271517261,-0.0001039585374047626,0.5556204756483548,0.16912015193427288,0.16902714806443556,0.4853162835172637,1.1202834359044958,0.0
0.6008010680907877,0.5986870195255193,-0.6006789142692165,1.094516908699936,-0.050620357094536314,0.010934052473502359,0.5519005505453559,0.11898766897681287,0.11839788036013141,0.48429158056431554,1.1243449435824273,0.0
0.6208277703604806,0.5866730756363651,-0.6006971944577095,1.0931013244921814,-0.07077921038773138,0.021500261334164845,0.5283104430331244,0.17775847019723526,0.17757578151840164,0.4832328883608088,1.128397724304094,0.0
0.6408544726301736,0.5747166897611162,-0.5978192937624416,1.0930296367466477,-0.0035843872766934404,0.031920327410178716,0.5210033038006937,0.10595339256452567,0.10476206602121503,0.48214028120940733,1.1324414936313905,0.0
0.6608811748998665,0.5628274163065173,-0.5944636727299424,1.0921589380035954,-0.04353493715260958,0.04138738399171106,0.4733528290766172,0.18995805181312667,0.18979921179450923,0.48101383579304297,1.1364759677586627,0.0
0.6809078771695595,0.5511176971892114,-0.585485955865293,1.0929914068355042,0.04162344159544159,0.050727374252731855,0.4669995130510398,0.13238054844750263,0.13131009680240419,0.47985363116953333,1.1405008635326255,0.0
0.7009345794392524,0.5395696128958444,-0.5774042146683517,1.0938070584463955,0.040782580544567,0.05921104054992109,0.42418331485946226,0.16046016979719946,0.1599449555892277,0.4786597487660336,1.144515898472236,0.0
0.7209612817089452,0.5282622151346472,-0.5653698880598594,1.0954433466482854,0.08181441009448975,0.06728255031316513,0.4035754881622016,0.13395635533102732,0.13273997742985266,0.4774322723733215,1.1485207907885173,0.0
0.7409879839786382,0.5171886268802249,-0.5536794127211127,1.0971037675566526,0.08302104541836879,0.07438098945375025,0.35492195702925566,0.1681794921465068,0.1675862989289201,0.4761712881399164,1.1525152594043386,0.0
0.7610146862483311,0.5064494702963912,-0.5369578291916867,1.099807241526904,0.13517369851256406,0.08100488597610536,0.33119482611775586,0.15694961492581913,0.15564865252176424,0.47487688456603344,1.156499023974139,0.0
0.7810413885180241,0.49605446089096616,-0.5197504702712529,1.103208996032825,0.1700877252960516,0.08658803540754631,0.279157471572047,0.1586723122425166,0.15767054233313316,0.47354915249737217,1.1604718049036047,0.0
0.801068090787717,0.48603867076543444,-0.5007895062765857,1.1073619436357813,0.2076473801478107,0.09136978140213942,0.23908729972965484,0.16942158735995447,0.16838201417155305,0.4721881851187405,1.1644333233692916,0.0
0.82109479305741,0.47645566899498626,-0.47915008852241037,1.1125806401769194,0.26093482705690063,0.0953198783539691,0.19750484759148462,0.142206755470087,0.14074870378046395,0.4707940779475151,1.1683833013381941,0.0
0.8411214953271028,0.46725515049332067,-0.46002592508327844,1.118053783574697,0.27365716988889055,0.09810354305423583,0.13918323501333563,0.14483928903273588,0.14389098413629817,0.46936692882693704,1.1723214615872586,0.0
0.8611481975967957,0.45846174424230657,-0.43967031255070643,1.1238649948513724,0.29056056383376605,0.1001285667766364,0.10125118612002787,0.1322226538720725,0.13118391848222485,0.4679068379192454,1.1762475277228392,0.0
0.8811748998664887,0.4500505555836804,-0.42055943293130893,1.1296397622172467,0.28873836829371463,0.10132260389098394,0.05970185571737747,0.1466359579951155,0.14562039456911274,0.46641390769864727,1.1801612242000974,0.0
0.9012016021361816,0.442072171913401,-0.39891918351396993,1.1358025671318706,0.3081402457311911,0.10170419084369478,0.019079347635541366,0.14020894188524127,0.13905583420738932,0.46488824294412573,1.184062276342339,0.0
0.9212283044058746,0.43451226889036465,-0.37799515115181714,1.1421614090577994,0.31794209629644193,0.10116329172128499,-0.027044956120489565,0.13637947303775538,0.13540573521958074,0.4633299507320861,1.1879504103602934,0.0
0.9412550066755675,0.42736116684856595,-0.35755510208993585,1.1486058921892626,0.32222415657316084,0.09984340245829079,-0.06599446314971043,0.13384592360836625,0.1330129889838594,0.4617391404288412,1.1918253533713281,0.0
0.9612817089452603,0.4206093285518612,-0.33759191483523787,1.1550636280341138,0.32288679224256395,0.09785716607611578,-0.09931181910875314,0.1293610887704868,0.12855984311160615,0.4601159236829352,1.1956868334186013,0.0
0.9813084112149533,0.41423836343346404,-0.31854825591985725,1.1614033850736096,0.316987851974792,0.0952299344312446,-0.13136158224355604,0.12144696748871331,0.1206995260410025,0.4584604144173082,1.1995345794901475,0.0
1.0013351134846462,0.4082178867474913,-0.3010238342986361,1.1673933349724581,0.299497494942423,0.09200475169184356,-0.16125913697005312,0.11734097431952382,0.11675845444982103,0.45677272882130043,1.2033683215379,0.0
1.0213618157543392,0.40252718181277036,-0.2845352467360481,1.172915710608382,0.2761187817961929,0.0883135554803811,-0.18455981057312232,0.22912316590954818,0.23052705012523766,0.45505298534249783,1.2071877904966422,0.0
1.041388518024032,0.39746211192955805,-0.2532534941606159,1.1812989180563855,0.419160372400178,0.08574545899034966,-0.12840482450157303,0.16786644890127894,0.1685105766416587,0.45330130467841884,1.2109927183028915,0.0
1.061415220293725,0.3928365687287379,-0.23127716004100618,1.1907260681397993,0.4713575041706922,0.0836926629933831,-0.1026397998483283,0.15130603275823007,0.15151064519676544,0.4515178097680436,1.2147828379137142,0.0
1.081441922563418,0.38859522329884716,-0.2120672714945383,1.2007029095234285,0.4988420691814641,0.08180355660235254,-0.09445531955152733,0.13925408644116524,0.13906716473632852,0.44970262578318554,1.2185578833254664,0.0
1.101468624833111,0.3846985632495638,-0.19483300246416776,1.2108685964584223,0.5082843467496863,0.0797649131142813,-0.10193217440356278,0.12331761925695126,0.12313440538204051,0.44785588011970645,1.2223175895924638,0.0
1.1214953271028039,0.38110024652503083,-0.17991583622664872,1.2207532149171971,0.49423092293874227,0.07757969883086105,-0.10926071417101316,0.12280534987994349,0.12247939186320074,0.4459777023885754,1.2260616928455754,0.0
1.1415220293724968,0.37779147610758623,-0.1654385208722298,1.2303401274571917,0.47934562699972594,0.07513371875664723,-0.1222990037106903,0.11881790345114375,0.11844727463900706,0.44406822440677224,1.229789930310744,0.0
1.1615487316421895,0.374755127950328,-0.15181740786291278,1.239511507150957,0.4585689846882693,0.07239123651968556,-0.13712411184808374,0.10977526402716933,0.10952213231371515,0.44212758018803616,1.2335020403274277,0.0
1.1815754339118825,0.3719626484050118,-0.1396239772658109,1.2480025714708751,0.42455321599590706,0.06944624967350266,-0.1472493423091444,0.09931163814918022,0.09892301776578462,0.4401559059334601,1.2371977623669645,0.0
1.2016021361815754,0.3693825825077536,-0.1290032948629108,1.2555027537053716,0.3750091117248264,0.06619036786879604,-0.1627940902353313,0.10793692099489628,0.10768331394142296,0.4381533400219318,1.2408768370508576,0.0
1.2216288384512684,0.36702417562536077,-0.11792034411963907,1.2622696100023503,0.33834281484893364,0.06273160149668146,-0.17293831860573078,0.10141457461918735,0.10123446414637097,0.43612002300042185,1.244539006168978,0.0
1.2416555407209613,0.36486434092330805,-0.10799173510263736,1.268112100097818,0.2921245047733874,0.05912874760818213,-0.18014269442496525,0.11389493576743749,0.11372425226127587,0.4340560975741196,1.2481840126976884,0.0
1.2616822429906542,0.36291590700415455,-0.09742169595767652,1.2734000933820637,0.264399664212293,0.05538934780097933,-0.18696999036013998,0.1090179838673947,0.10885459161932502,0.43196170859641764,1.2518116008178803,0.0
1.2817089452603472,0.36115821422823435,-0.08788463879600998,1.277990187739371,0.2295047178653549,0.05151923510921244,-0.19350563458834372,0.11349378146634218,0.11336546112893053,0.42983700305874556,1.2554215159329298,0.0
1.3017356475300401,0.35958658310142533,-0.07858155634045191,1.2820160055302339,0.20129088954315005,0.04754646691629646,-0.19863840964579976,0.11539279532772953,0.1152544209341362,0.4276821300802533,1.2590135046865651,0.0
1.321762349799733,0.3581909151191548,-0.06978339911352556,1.2855342853714165,0.17591399205913413,0.04346300008208358,-0.20417334171064297,0.10580502627371863,0.10551722700418771,0.4254972408973459,1.262587314980648,0.0
1.341789052069426,0.3569440447847347,-0.06234351672100471,1.2882597271933827,0.13627209109830793,0.03914929575183013,-0.21568521651267303,0.12198387858838343,0.12176270079911135,0.4232824888530689,1.266142695992867,0.0
1.361815754339119,0.35585407256182267,-0.05449861114560077,1.290672819282559,0.12065460445881836,0.034658650836430945,-0.2245322457699588,0.12257498295297811,0.122488014160419,0.42103802938634616,1.2696793981943417,0.0
1.3818424566088119,0.35490619801584905,-0.04739372729868005,1.2927936924246282,0.10604365710346389,0.030098431588504587,-0.22801096239631796,0.12572742257498742,0.12563157928038518,0.4187640200210709,1.2731971733671346,0.0
1.4018691588785048,0.35408736080109715,-0.04094186073759449,1.29471616627745,0.0961236926410934,0.025461538502142514,-0.23184465431810367,0.12869249490922532,0.12867383551578818,0.4164606203550497,1.276695774621672,0.0
1.4218958611481975,0.3533832665990369,-0.035204710103011475,1.2965297477323556,0.09067907274527581,0.02080971806150705,-0.23259102203177356,0.13083414634129004,0.1309082952220178,0.4141279920488021,1.2801749564140723,0.0
1.4419225634178905,0.352777893066656,-0.0302686766190452,1.2982997381302317,0.08849951989379902,0.016217216083639064,-0.2296250988933992,0.1314283508122739,0.13154311599622778,0.4117662988142137,1.283634474563378,0.0
1.4619492656875834,0.35225358571395604,-0.02621536763499851,1.300044758597844,0.0872510233806163,0.011716525284727485,-0.22503453994557912,0.13411609328949026,0.13428214234517144,0.40937570640304727,1.287074086268695,0.0
1.4819759679572764,0.3517937595671155,-0.022991307342025855,1.3018455263587232,0.09003838804395409,0.007348672384952787,-0.21839264498873467,0.133667409757672,0.1338809072018684,0.4069563825953091,1.2904935501262298,0.0
1.5020026702269693,0.35138037290027274,-0.020669333342139242,1.3036897008315902,0.09220872364334845,0.003151615811284211,-0.20985282868342883,0.1334714381074935,0.1336932218601107,0.4045084971874737,1.2938926261462367,0.0
1.5220293724966623,0.3509960719799227,-0.019215046017502277,1.3055717633956483,0.09410312820290113,-0.0008680153230018181,-0.20098155671430148,0.1360215572613367,0.1363856169216826,0.4020322219805673,1.2972710757698567,0.0
1.5420560747663552,0.35062448989418044,-0.018579104287113974,1.307569467756998,0.09988521806748704,-0.00459640108191601,-0.18641928794570958,0.1357094166363683,0.13608385415603091,0.3995277307681099,1.3006286618858631,0.0
1.5620827770360481,0.3502494126870439,-0.01875386035682569,1.3096737375761405,0.10521349095711957,-0.008025238907099181,-0.17144189125915846,0.13951072681018697,0.13982441738167856,0.3969951993239177,1.3039651488473027,0.0
1.582109479305741,0.3498553142674918,-0.01970492097760517,1.3119962621131174,0.1161262268488423,-0.01120312575030273,-0.15889434216017723,0.1364441266111566,0.1367443281868036,0.39443480538976705,1.3072803024880322,0.0
1.602136181575434,0.34942873615782005,-0.021328905483585233,1.3144458926881355,0.12248152875090651,-0.014140852545677743,-0.146886339768751,0.14215188022065872,0.14260567173395286,0.39184672866291986,1.3105738901391553,0.0
1.622162883845127,0.34895489718992373,-0.023691948394817485,1.3171938889250434,0.13739981184539457,-0.01671554769694799,-0.1287347575635124,0.13154847610861684,0.1318356158986372,0.3892311507835117,1.3138456806453502,0.0
1.64218958611482,0.34842588264450836,-0.026450727270767357,1.3199234815888532,0.13647963319048662,-0.01906053177758779,-0.11724920403198964,0.13818852970360793,0.13859708433679419,0.38658825532180363,1.3170954443810947,0.0
1.6622162883845129,0.34782832872601804,-0.029877695924516823,1.322833029018158,0.1454773714652423,-0.0210786730503268,-0.10090706363695037,0.12945923951163663,0.12971932147752469,0.3839182277652987,1.3203229532667808,0.0
1.6822429906542056,0.34715759285081466,-0.03353679376017073,1.3256615613678657,0.1414266174853813,-0.02288874917406973,-0.09050380618714673,0.12834943148761147,0.1286272789810141,0.38122125550572394,1.3235279807847222,0.0
1.7022696929238985,0.34640661509483683,-0.037548887798891976,1.3283763103673873,0.13573744997608367,-0.024476547667223555,-0.07938992465769118,0.1276287393550669,0.12785786666113988,0.37849752782587825,1.3267103019950528,0.0
1.7222963951935915,0.34556901129066403,-0.04188019020864146,1.3309550546984763,0.12893721655444554,-0.025881044546580488,-0.07022484396784677,0.134741332482769,0.1350982009411039,0.37574723588634806,1.329869693551513,0.0
1.7423230974632844,0.34463356925334643,-0.04677210186587913,1.3336102243160848,0.13275848088042635,-0.027000046940854557,-0.05595011971370325,0.13233343892827806,0.13261075030451133,0.3729705727120911,1.3330059337171258,0.0
1.7623497997329773,0.3435965528918271,-0.05185081807596535,1.3362691785352587,0.13294771095869917,-0.027897200373037962,-0.044857671609170355,0.13017310752415615,0.1304642468942245,0.37016773317888907,1.336118802379758,0.0
1.7823765020026703,0.34245529407386777,-0.05706294089796609,1.3388680195328573,0.12994204987992347,-0.028561442402900074,-0.03321210149310565,0.13117556207498748,0.1314026613325765,0.3673389139996707,1.339208081067569,0.0
