time,x,x_dot,z,z_dot,theta,theta_dot,u1,u2,x_ref,z_ref,theta_ref
0.0,-0.11271552607466573,0.013698238384911285,1.4081037749608196,-0.04915008930023961,0.03551250822193936,-0.028175335877937344,0.08095812152297421,0.05632337514118777,0.5,1.0,0.0
0.020026702269692925,-0.11236958150401881,0.017297228532345846,1.405234117340993,-0.14348288099132658,0.01524166823527188,-1.0135419993333734,0.1457739396811098,0.16908908052127808,0.4999824541392403,1.0041887412073853,0.0
0.04005340453938585,-0.1118583355308236,0.025562298659760806,1.4031087834986984,-0.10626669211472939,0.013651761859968744,-0.07949531876515692,0.05632337491139852,0.07461590668890486,0.4999298177883902,1.0083771884344908,0.0
0.06008010680907877,-0.11131797798536607,0.02701787727287656,1.3990049516611391,-0.20519159187796582,0.0266972349346793,0.652273653735528,0.056323374905542165,0.06739949481162053,0.49984209464164997,1.0125650477216688,0.0
0.0801068090787717,-0.11075312022710426,0.028242887913090216,1.3928178429742175,-0.309355434346079,0.04858560568133993,1.094418537333032,0.056323374914141966,0.06488666009978057,0.49971929085573213,1.0167520251505358,0.0
0.10013351134846463,-0.11014092008676253,0.030610007017086417,1.3845122858873704,-0.41527785434235476,0.07728628833379282,1.4350341326226435,0.056323374904883955,0.05666439012258324,0.4995614150494292,1.0209378268645999,0.0
0.12016021361815754,-0.10944811854055678,0.034640077310287495,1.3739680575730537,-0.5272114157158292,0.10620376057598853,1.4458736121097853,0.056323374906618456,0.0581412531525294,0.49936847830300873,1.0251221590898847,0.0
0.14018691588785048,-0.10862523455770183,0.04114419914274709,1.3612074316894929,-0.6380312941780452,0.13651834409731223,1.5157291760661846,0.0584728640188624,0.05632343228711236,0.499140494157436,1.0293047281555483,0.0
0.1602136181575434,-0.10762314988973935,0.05010423339812366,1.3462346448398446,-0.7486393424824189,0.16505316165704229,1.4267408779865025,0.059431312336361224,0.0563233750199598,0.4988774786134233,1.0334852405144925,0.0
0.1802403204272363,-0.10638908175914931,0.06170340652950205,1.329061752352407,-0.8586446243718717,0.19104724467335338,1.299704150815558,0.2638379777250562,0.25910200382169374,0.49857945013030697,1.0376634027639664,0.0
0.20026702269692925,-0.10388393916091951,0.12525712991149038,1.3156363957351056,-0.6712678308650759,0.21320600556002062,1.1079380443333604,0.06393070780733578,0.05632337490494985,0.4982464296247522,1.0418389216661577,0.0
0.22029372496662217,-0.10104387719488571,0.14200309830169014,1.3000582419014515,-0.7789076916827107,0.229243027259329,0.8018510849654217,0.26341621316769853,0.25723148031527754,0.4978784404692846,1.0460115041687736,0.0
0.24032042723631508,-0.09657579528978967,0.22340409525480184,1.2881210690409213,-0.5968586430265138,0.24030978185446458,0.5533377297567759,0.07470918598911477,0.0684020590579135,0.4974755084906501,1.0501808574256075,0.0
0.260347129506008,-0.0916317783065163,0.24720084916366866,1.274344232209348,-0.6888418415786699,0.24631739155707325,0.30038048513043436,0.2966828866746467,0.2905607847586815,0.4970376619680023,1.0543466888170925,0.0
0.28037383177570097,-0.08462400288713152,0.3503887709692388,1.2651163912418506,-0.46139204837486403,0.24742115836607698,0.05518834045018248,0.1967384640519358,0.18999632007096387,0.4965649316309177,1.0585087059708387,0.0
0.30040053404539385,-0.07622805720336362,0.4197972841883955,1.2575366827878718,-0.3789854226989419,0.24313028153041435,-0.2145438417831291,0.20932775143573043,0.20535068064266002,0.49605735065723894,1.0626666167821521,0.0
0.3204272363150868,-0.06633808478224161,0.4944986210561003,1.2520027685530501,-0.2766957117410862,0.23566194651631941,-0.37341675070474356,0.26646950747136544,0.2638160405885404,0.49551495467074635,1.066820129434536,0.0
0.34045393858477974,-0.05456921855898225,0.5884433111629679,1.2501808181404273,-0.09109752063114265,0.2260791029045697,-0.4791421805874891,0.14302950222707847,0.13919822333361026,0.4949377817386579,1.0709689524201722,0.0
0.3604806408544726,-0.041839130464916593,0.636504404703283,1.2485067776538445,-0.08370202432914052,0.2134427164191747,-0.6318193242697511,0.2072945121872195,0.204732590332508,0.49432587236895703,1.0751127945603784,0.0
0.38050734312416556,-0.027757479611038235,0.7040825426939179,1.2488637089093526,0.01784656277540013,0.1987734523204821,-0.7334632049346297,0.170002777883185,0.16795529175144258,0.49367926950755014,1.0792513650260465,0.0
0.4005340453938585,-0.012634462140628409,0.7561508735204913,1.2501933229876552,0.0664807039151239,0.18248671845363995,-0.8143366933421111,0.13111754276076415,0.12933097579330932,0.49299801853525244,1.083384373358051,0.0
0.4205607476635514,0.0032291994642885628,0.7931830802458485,1.251383586874798,0.05951319435714066,0.1647945602634686,-0.8846079095085647,0.1234760272397627,0.1221668846817647,0.49228216726460267,1.087511529487638,0.0
0.44058744993324434,0.019730493169486198,0.8250646852598819,1.2522308689009496,0.04236410130757806,0.1460819261582101,-0.9356317052629229,0.09880711885799794,0.09777814814004496,0.4915317659365077,1.09163254375678,0.0
0.4606141522029373,0.03668545385459006,0.8477480342551931,1.2520298308219016,-0.010051903952401256,0.12657523621088232,-0.9753344973663891,0.09504742620571918,0.09432914265288488,0.49074686721671645,1.0957471269385064,0.0
0.48064085447263016,0.05402373917014991,0.8669142657779924,1.250684786495259,-0.06725221633212825,0.10652485453310107,-1.002519083889064,0.09253337878389069,0.09208180623119809,0.48992752619212343,1.0998549902572035,0.0
0.5006675567423231,0.0716813577328542,0.8828809281352143,1.248134913417792,-0.12749365387335324,0.0861454084436569,-1.018972304472208,0.1010421326292481,0.10069154091109826,0.48907380036690284,1.1039558454088796,0.0
0.520694259012016,0.089630012595032,0.8974327431088909,1.2446406060490243,-0.17471536843838764,0.06551846365008598,-1.031347239678545,0.10617333684045555,0.10601226568444186,0.48818574965847245,1.108049404581401,0.0
0.540720961281709,0.10782164288976417,0.9095815147366081,1.2403634835997102,-0.2138561224657089,0.04479620973231128,-1.0361126958887348,0.10653276083310367,0.10650818435179225,0.48726343639328856,1.1121353804746905,0.0
0.5607476635514019,0.1261917604923414,0.9185058801288618,1.235322370421123,-0.25205565892936316,0.024088053125385957,-1.0354078303462664,0.11044115856154145,0.11070139821510745,0.48630692530247177,1.116213486320892,0.0
0.5807743658210948,0.14467989615785715,0.9244067832757866,1.2296420307245963,-0.28401698482633086,0.0036217632382487155,-1.023314494356862,0.1007477611707371,0.10098130744487023,0.4853162835172637,1.1202834359044958,0.0
0.6008010680907877,0.1632109201774298,0.9265512009786325,1.2230383416543258,-0.33018445351353193,-0.016624600966296935,-1.0123182102272823,0.10857238603975378,0.10906920599880023,0.48429158056431554,1.1243449435824273,0.0
0.6208277703604806,0.1817242150075976,0.9256647415083908,1.2157494307151508,-0.3644455469587429,-0.03644099696128131,-0.9908197997492184,0.12268576905521579,0.12350205245751494,0.4832328883608088,1.128397724304094,0.0
0.6408544726301736,0.20014733431891768,0.9211559655660035,1.2081988748456705,-0.37752779347402093,-0.05557293375051564,-0.9565968394617174,0.13094352574915355,0.1318956060228919,0.48214028120940733,1.1324414936313905,0.0
0.6608811748998665,0.21839917603124603,0.9125920856164171,1.2006317006861438,-0.3783587079763319,-0.07391339892389294,-0.917023258668864,0.1318429576865601,0.1333184421055952,0.48101383579304297,1.1364759677586627,0.0
0.6809078771695595,0.23640379547888066,0.9002309723817317,1.1930788134406394,-0.377644362275223,-0.0910455478035054,-0.8566074439806233,0.16224636597894676,0.16417419213016804,0.47985363116953333,1.1405008635326255,0.0
0.7009345794392524,0.25402284037590905,0.8809522448514188,1.18644052372779,-0.3319144856424744,-0.10661021595196718,-0.7782334074230879,0.17967723744792666,0.18165971316990623,0.4786597487660336,1.144515898472236,0.0
0.7209612817089452,0.2711278142016984,0.8552486912894678,1.181223512565098,-0.26085055813459496,-0.12056695353811098,-0.6978368793071892,0.19287944043058522,0.19487066967371738,0.4774322723733215,1.1485207907885173,0.0
0.7409879839786382,0.2875956114012071,0.8233898599754357,1.1778062388666275,-0.17086368492352327,-0.1329119058656586,-0.6172476163773808,0.19055068490474267,0.19280552861246208,0.4761712881399164,1.1525152594043386,0.0
0.7610146862483311,0.3033560713914542,0.7880229995123567,1.1761121205976794,-0.08470591344740666,-0.1434371488031927,-0.5262621468767053,0.15724810608325776,0.1590211579652006,0.47487688456603344,1.156499023974139,0.0
0.7810413885180241,0.3184730072046977,0.755846790662174,1.1751445774816054,-0.048377155803699896,-0.15253117737882765,-0.45470142878174824,0.16978958044382678,0.17171434390459517,0.47354915249737217,1.1604718049036047,0.0
0.801068090787717,0.3328454817061491,0.7186237250725698,1.1752657554749226,0.006058899665856501,-0.16007487558077493,-0.3771849100973628,0.13645911605734587,0.1381107043438336,0.4721881851187405,1.1644333233692916,0.0
0.82109479305741,0.3465801470655816,0.6867332679716268,1.1754872404947327,0.011074250990505696,-0.16628902949470203,-0.3107076956963548,0.17381092778690127,0.1755321379899554,0.4707940779475151,1.1683833013381941,0.0
0.8411214953271028,0.3594713516449797,0.6445602289699048,1.1768977131112555,0.07052363082614106,-0.17111972588106095,-0.24153481931794535,0.13440074865161505,0.1359824528772612,0.46936692882693704,1.1723214615872586,0.0
0.8611481975967957,0.371682521710441,0.610558503273068,1.1783367476900268,0.0719517289385711,-0.1746802756687935,-0.17802748938663016,0.16954636537517281,0.17118739738532218,0.4679068379192454,1.1762475277228392,0.0
0.8811748998664887,0.3830183299371706,0.5667904113364781,1.180828104733781,0.12456785218770294,-0.17692465262973409,-0.11221884804702495,0.1352079472092175,0.13659369274080363,0.46641390769864727,1.1801612242000974,0.0
0.9012016021361816,0.39363999496165464,0.5310832512242021,1.1833617254733164,0.12668103697677424,-0.17805843896688908,-0.056689316857751804,0.17242305770882085,0.1737980720135655,0.46488824294412573,1.184062276342339,0.0
0.9212283044058746,0.4033457679677362,0.48528865030407775,1.1870213457833858,0.18298101550347212,-0.17809125611935828,-0.001640857623461077,0.12931328566290207,0.1305826846271888,0.4633299507320861,1.1879504103602934,0.0
0.9412550066755675,0.41235778596891826,0.450600900059103,1.1905459550618074,0.17623046392107547,-0.177108527804145,0.04913641576066823,0.16242961622917684,0.1635991847287427,0.4617391404288412,1.1918253533713281,0.0
0.9612817089452603,0.4205034551157094,0.40728345733955823,1.1949000426974334,0.2177043817813041,-0.17519096995391695,0.09587789251140218,0.12575316133876996,0.1267166279372103,0.4601159236829352,1.1956868334186013,0.0
0.9813084112149533,0.42798061819699806,0.3738581540644321,1.199010823089223,0.20553901958947768,-0.17250432136938063,0.13433242922681427,0.14029798878959052,0.14100869844363007,0.4584604144173082,1.1995345794901475,0.0
1.0013351134846462,0.434722867050126,0.3371124426563977,1.2033006274067173,0.21449021587472059,-0.16925154515563315,0.16263881068737496,0.13687528035844052,0.13759857152235253,0.45677272882130043,1.2033683215379,0.0
1.0213618157543392,0.4407595899501285,0.3018361450001232,1.2076715561704354,0.21854643818591188,-0.16542316451490885,0.19141903203621694,0.1378796483761016,0.1366509568385276,0.45505298534249783,1.2071877904966422,0.0
1.041388518024032,0.44610459924563095,0.26725046477512476,1.2121266906029657,0.22275672162651936,-0.16258137886529053,0.14208928248091637,0.1283388429834265,0.12786861619247447,0.45330130467841884,1.2109927183028915,0.0
1.061415220293725,0.4508188135368634,0.23571071456162465,1.2164008714474819,0.2137090422258099,-0.1601183695877509,0.12315046387698034,0.14674952125727952,0.1469541887318395,0.4515178097680436,1.2147828379137142,0.0
1.081441922563418,0.45482375032726025,0.2002468395198419,1.221044331109586,0.23217298310520665,-0.1574938398911628,0.13122648482940485,0.12276249679270464,0.12313839071538407,0.44970262578318554,1.2185578833254664,0.0
1.101468624833111,0.4582436827134005,0.17099661930701282,1.2253593137428112,0.21574913166125845,-0.15457097124206626,0.1461434324548273,0.14010028863156174,0.14078494480267872,0.44785588011970645,1.2223175895924638,0.0
1.1214953271028039,0.46100745870495086,0.13818879957751845,1.229859654755639,0.22501705064140054,-0.15110306001703064,0.17339556125178113,0.12499376452047138,0.12562066799102112,0.4459777023885754,1.2260616928455754,0.0
1.1415220293724968,0.46319683026400604,0.1094685779527581,1.2341039859167706,0.21221655805657302,-0.1471368844165489,0.19830878002408575,0.1375432651246738,0.1382868371810629,0.44406822440677224,1.229789930310744,0.0
1.1615487316421895,0.4647689157813165,0.07860427586552478,1.2384639211023536,0.21799675927915213,-0.14257965801201952,0.22786132022646965,0.12696976741615668,0.12757174942001567,0.44212758018803616,1.2335020403274277,0.0
1.1815754339118825,0.4657866009894928,0.050884260408814525,1.242629799556348,0.20829392269971567,-0.13754532751877815,0.25171652466207045,0.12856718691580285,0.12912284411600838,0.4401559059334601,1.2371977623669645,0.0
1.2016021361815754,0.4662608234452895,0.02371112278983438,1.2466505222721538,0.20103613579029112,-0.13207151814212081,0.2736904688328653,0.12882340174149962,0.1293256556735923,0.4381533400219318,1.2408768370508576,0.0
1.2216288384512684,0.46621021425804066,-0.002530459362442738,1.2505356880989513,0.1942582913398794,-0.12620148919024596,0.29350144759374264,0.1290174567881356,0.12945081230133687,0.43612002300042185,1.244539006168978,0.0
1.2416555407209613,0.46565539943935935,-0.027740740934066217,1.254292954222012,0.18786330615303642,-0.11999085611330851,0.3105316538468748,0.1290815454020869,0.12944223402841049,0.4340560975741196,1.2481840126976884,0.0
1.2616822429906542,0.46461904535347714,-0.05181770429411092,1.2579261663949888,0.18166060864883868,-0.11349818908512634,0.3246333514091081,0.12934230158613047,0.1296332843081252,0.43196170859641764,1.2518116008178803,0.0
1.2817089452603472,0.46312441492549344,-0.07473152139918394,1.261445011545153,0.17594225750821318,-0.10677962110832406,0.33592839884011155,0.12969693157123832,0.12991208961852613,0.42983700305874556,1.2554215159329298,0.0
1.3017356475300401,0.461195624565753,-0.0964395179870215,1.2648618174959847,0.17084029754158564,-0.09989611099894535,0.34417550546893705,0.1290310745557338,0.1291782191430522,0.4276821300802533,1.2590135046865651,0.0
1.321762349799733,0.4588609891977552,-0.1167317683998907,1.268158889384427,0.16485359442210512,-0.09290229012492376,0.3496910437010792,0.12956702636120768,0.12965077574907008,0.4254972408973459,1.262587314980648,0.0
1.341789052069426,0.45614560913111646,-0.13576900333193814,1.2713539090361476,0.15975098258604187,-0.085849022976944,0.3526633573989882,0.13009730608473213,0.13011668482014402,0.4232824888530689,1.266142695992867,0.0
1.361815754339119,0.4530752313669201,-0.15351888820982057,1.274464234819129,0.15551628914907636,-0.07878788578290517,0.3530568597019424,0.13063996968568378,0.13060111303776484,0.42103802938634616,1.2696793981943417,0.0
1.3818424566088119,0.4496759984698411,-0.16996164485394927,1.2775075136790688,0.15216394299698935,-0.07176547642817634,0.3511204677364412,0.13111799336370553,0.13102262494908648,0.4187640200210709,1.2731971733671346,0.0
1.4018691588785048,0.4459744439275524,-0.18507772711443338,1.28049931979428,0.14959030576056248,-0.06482695042058222,0.3469263003797048,0.12804979642607792,0.12787524529086616,0.4164606203550497,1.276695774621672,0.0
1.4218958611481975,0.44200469130792835,-0.1984876309812039,1.2833498855752115,0.14252828904657266,-0.05803553850616021,0.3395705957211007,0.1237888575887247,0.12347755052746555,0.4141279920488021,1.2801749564140723,0.0
1.4419225634178905,0.43780158234901784,-0.21015544794552604,1.2859331250213388,0.12916197230636983,-0.05150044455776754,0.32675469741963215,0.1274352016991374,0.12715701369162064,0.4117662988142137,1.283634474563378,0.0
1.4619492656875834,0.4333838934122402,-0.22088444683888084,1.2883591745705656,0.1213024774613367,-0.04519483263624499,0.3152805960761283,0.13261734144095053,0.13229143217876607,0.40937570640304727,1.287074086268695,0.0
1.4819759679572764,0.42876860124065397,-0.23076460857931166,1.290782165195854,0.12114953126441465,-0.03915657786018665,0.30191273880291697,0.13485103252782377,0.13456185259742617,0.4069563825953091,1.2904935501262298,0.0
1.5020026702269693,0.4239776387967459,-0.2395481221954053,1.2932699386528201,0.12438867284831001,-0.033355951835508754,0.2900313012338958,0.13474374288819965,0.1344485241230661,0.4045084971874737,1.2938926261462367,0.0
1.5220293724966623,0.4190354258109582,-0.24711064928938348,1.295820161369235,0.12751113582074844,-0.027797483240804565,0.2779234297352089,0.133002240461559,0.13364836329534555,0.4020322219805673,1.2972710757698567,0.0
1.5420560747663552,0.41396652179043675,-0.25344520102607226,1.2983959584798817,0.12878985553233024,-0.02172780700191665,0.30348381194439544,0.14160527894239328,0.14186545268649267,0.3995277307681099,1.3006286618858631,0.0
1.5620827770360481,0.4087861033842878,-0.25902092030744706,1.3012470531287668,0.14255473244425418,-0.015456324981394027,0.3135741010261312,0.14139241135130692,0.141278505347171,0.3969951993239177,1.3039651488473027,0.0
1.582109479305741,0.4035200718649614,-0.2633015759663189,1.3043619213603836,0.15574341158084598,-0.00928255641708744,0.3086884282153294,0.1354499731754674,0.13521960121192542,0.39443480538976705,1.3072803024880322,0.0
1.602136181575434,0.39819756578231047,-0.266125304132548,1.30756297603984,0.16005273397281483,-0.0032995455427744925,0.2991505437156474,0.1351946518003145,0.13481495294083742,0.39184672866291986,1.3105738901391553,0.0
1.622162883845127,0.3928435090025697,-0.26770283898703806,1.310840644568669,0.1638834264414497,0.0023734934153589998,0.28365194790667464,0.13510303257435585,0.13461774258486417,0.3892311507835117,1.3138456806453502,0.0
1.64218958611482,0.3874818953972544,-0.2680806802657641,1.3141907095032275,0.16750324672792996,0.0076524808633123805,0.26394937239766897,0.1349543627321691,0.13440640877876847,0.38658825532180363,1.3170954443810947,0.0
1.6622162883845129,0.38213539845170197,-0.2673248472776215,1.317607765906743,0.17085282017577558,0.012487773358441479,0.24176462475645485,0.13468669507020076,0.1341055845681298,0.3839182277652987,1.3203229532667808,0.0
1.6822429906542056,0.37682500838958527,-0.26551950310583494,1.3210832126417762,0.1737723367516701,0.016853379450431805,0.21828030459951636,0.1342812356929534,0.1336823169241948,0.38122125550572394,1.3235279807847222,0.0
1.7022696929238985,0.37156978780420585,-0.26276102926897144,1.3246045176092138,0.17606524837188312,0.020735600267768738,0.19411104086684694,0.1339077692637095,0.1333112371132511,0.37849752782587825,1.3267103019950528,0.0
1.7222963951935915,0.3663868171556193,-0.25914853242932673,1.328160352402833,0.17779173968094966,0.02413689031891125,0.1700645025571257,0.133579262083214,0.13299531191558245,0.37574723588634806,1.329869693551513,0.0
1.7423230974632844,0.36129118024219853,-0.2547818456710395,1.3317408524828849,0.1790250040025966,0.027067839155250687,0.14654744181697174,0.133215678459372,0.1326508923054812,0.3729705727120911,1.3330059337171258,0.0
1.7623497997329773,0.356295949506669,-0.24976153677647728,1.3353352129431852,0.17971802301502088,0.029544272631733193,0.12382167382412568,0.1326434846571444,0.13209529468978157,0.37016773317888907,1.336118802379758,0.0
1.7823765020026703,0.3514120931999263,-0.24419281533713533,1.3389264324227,0.17956097397573556,0.03157992902344168,0.10178281958542362,0.13212309927609842,0.1315961692010773,0.3673389139996707,1.339208081067569,0.0
1.8024032042723632,0.34664873950008845,-0.23816768499189167,1.3424991552457815,0.1786361411540743,0.03319224794759947,0.08061594620789041,0.13163719455422332,0.13113368316242718,0.3644843137107058,1.3422735529643444,0.0
