time,x,x_dot,z,z_dot,theta,theta_dot,u1,u2,x_ref,z_ref,theta_ref
0.0,-0.638733817551661,-0.02035264785286632,1.393832403569878,-0.01932279849706664,0.07320184921118865,0.002216183042718936,0.05632337556055886,0.056323374922318176,0.5,1.0,0.0
0.020026702269692925,-0.6390184825700326,-0.014233250918577682,1.3911906369441087,-0.13208833128845926,0.07324613732839873,0.0022144058605038366,0.056323374907017464,0.0970138210673863,0.4999824541392403,1.0041887412073853,0.0
0.04005340453938585,-0.6391367482009607,-0.005913281546402492,1.386896843031256,-0.21468969564263488,0.10584274631632853,1.6298304493964895,0.05632337491648334,0.06805251997535422,0.4999298177883902,1.0083771884344908,0.0
0.06008010680907877,-0.6391200557851663,0.0008346207897186311,1.380524887181771,-0.3185977924742502,0.14774910737228927,2.095318052798037,0.05632337497854649,0.06958041688182214,0.49984209464164997,1.0125650477216688,0.0
0.0801068090787717,-0.6389063271123352,0.010686433641553882,1.3720944562371051,-0.4215215472332977,0.2001480195391049,2.619945608340785,0.056323374906081594,0.06360207541640472,0.49971929085573213,1.0167520251505358,0.0
0.10013351134846463,-0.6384312936360879,0.023751673812365037,1.361510929825647,-0.5291763205729096,0.25821015456614876,2.903106751352187,0.05632337491442756,0.05831717253507626,0.4995614150494292,1.0209378268645999,0.0
0.12016021361815754,-0.6376191793937885,0.040605712114967656,1.348684829219554,-0.6413050303046457,0.31768334116470537,2.9736593299278318,0.05632337492630366,0.056323374913197506,0.49936847830300873,1.0251221590898847,0.0
0.14018691588785048,-0.6363819930853586,0.061859315421496155,1.3335690993154783,-0.7557864952037783,0.37696746682124166,2.964206282826808,0.10200945825356966,0.09672434865628958,0.499140494157436,1.0293047281555483,0.0
0.1602136181575434,-0.6342268757143334,0.10775586855125728,1.3173515132700442,-0.8108793022717092,0.43184292106000094,2.743772711937969,0.19025223504389382,0.18052434267746295,0.4988774786134233,1.0334852405144925,0.0
0.1802403204272363,-0.6300529104163582,0.20869826489876026,1.3023448115385652,-0.7503350865739498,0.4787834229877928,2.347025096389593,0.296682886674779,0.2836096885156124,0.49857945013030697,1.0376634027639664,0.0
0.20026702269692925,-0.6222866819584133,0.3883114228972495,1.2912471594516368,-0.554882604346417,0.515151197695131,1.8183887353669101,0.29668288667479903,0.2792989511113534,0.4982464296247522,1.0418389216661577,0.0
0.22029372496662217,-0.6105996938275094,0.5843494065451902,1.2838179711432571,-0.37145941541898275,0.5375390210205069,1.1193911662687954,0.2966828866354338,0.27892023537608035,0.4978784404692846,1.0460115041687736,0.0
0.24032042723631508,-0.5947273389876088,0.7936177419950314,1.2798995872179801,-0.1959191962638534,0.5456823255068133,0.4071652243153173,0.2480770853766794,0.23191159190404625,0.4974755084906501,1.0501808574256075,0.0
0.260347129506008,-0.5752370907675569,0.9745124110025914,1.278174997144335,-0.0862295036822522,0.5408844968285267,-0.23989143391433254,0.20713652984481376,0.19418820870187764,0.4970376619680023,1.0543466888170925,0.0
0.28037383177570097,-0.5526919389906327,1.127257588846208,1.2776152357029105,-0.027988072071225008,0.5257328894886901,-0.7575803669918186,0.17643501572249734,0.16621842915218982,0.4965649316309177,1.0585087059708387,0.0
0.30040053404539385,-0.5275713779836598,1.2560280503486454,1.2774881440180799,-0.006354584241535018,0.5024302551818908,-1.1651317153399807,0.15118779628939635,0.14340502827117732,0.49605735065723894,1.0626666167821521,0.0
0.3204272363150868,-0.5003059251995403,1.3632726392059729,1.2772162438133325,-0.013595010237371231,0.4729434594581453,-1.4743397861872687,0.13347418973682856,0.12771375422140088,0.49551495467074635,1.066820129434536,0.0
0.34045393858477974,-0.4712286617279442,1.4538631735798044,1.2764161020003983,-0.040007090646712935,0.43890868686999196,-1.7017386294076735,0.11784786837895017,0.11390850027241604,0.4949377817386579,1.0709689524201722,0.0
0.3604806408544726,-0.4406445364697458,1.5292062629099206,1.2747540763399263,-0.08310128302360262,0.4017978073582819,-1.8555439755855017,0.10800901500654823,0.10518999569987332,0.49432587236895703,1.0751127945603784,0.0
0.38050734312416556,-0.40878013722356765,1.593219962308905,1.2720345446625965,-0.13597658386649558,0.3625180425808009,-1.963988238874051,0.09927149283445101,0.09734517401801857,0.49367926950755014,1.0792513650260465,0.0
0.4005340453938585,-0.3758428561017872,1.6468640560890224,1.2680815267039256,-0.19765089793353863,0.3217915512507647,-2.0363245665018055,0.0938521456578639,0.09246624158177832,0.49299801853525244,1.083384373358051,0.0
0.4205607476635514,-0.34199675610207586,1.6923049999855675,1.262797790111769,-0.2641868296078216,0.280056183097778,-2.086768407649324,0.08981498935885504,0.08893451976395027,0.49228216726460267,1.087511529487638,0.0
0.44058744993324434,-0.30738659164973964,1.730508222616812,1.2561177331908877,-0.3340028460440667,0.23772011456544123,-2.1168034266168445,0.08645205430629588,0.08598558167632142,0.4915317659365077,1.09163254375678,0.0
0.4606141522029373,-0.27214678934825015,1.7619901150744741,1.2479875418740862,-0.40650956584007336,0.19511676487111881,-2.1301674847161216,0.0861244779179793,0.08598602434834869,0.49074686721671645,1.0957471269385064,0.0
0.48064085447263016,-0.23638571502177916,1.7880537163235495,1.2384336945985162,-0.47769236377850666,0.15250943731927294,-2.130366377592295,0.0833683456380297,0.08356159782242878,0.48992752619212343,1.0998549902572035,0.0
0.5006675567423231,-0.20022672284715828,1.8079496087310438,1.2274077463617372,-0.5512974118389521,0.11016327243947811,-2.11730824398974,0.08512753461674624,0.08552369803072102,0.48907380036690284,1.1039558454088796,0.0
0.520694259012016,-0.16376725786164176,1.8229732492758266,1.2149861131877175,-0.6210816587009864,0.068239359010342,-2.096195671456807,0.08442368822438265,0.0850950675801786,0.48818574965847245,1.108049404581401,0.0
0.540720961281709,-0.12711702981466702,1.8325114023487363,1.2011697206157097,-0.6908196286003969,0.026955920833642795,-2.06417190883496,0.0917968276833435,0.09270499681879786,0.48726343639328856,1.1121353804746905,0.0
0.5607476635514019,-0.09036716455559206,1.8374932629537482,1.1861930263088944,-0.748834715340763,-0.01350040143293071,-2.0228161133286755,0.10427901984461581,0.10553191418967346,0.48630692530247177,1.116213486320892,0.0
0.5807743658210948,-0.0536212578693807,1.837295334310568,1.170439267939155,-0.787687918486964,-0.0528573947473995,-1.9678496657234388,0.12038550244951454,0.12204780105464186,0.4853162835172637,1.1202834359044958,0.0
0.6008010680907877,-0.017011999365113016,1.8304629252133842,1.1543945835148173,-0.8022342212168877,-0.09079213447756561,-1.8967369865083048,0.1382341690413348,0.14034732055876198,0.48429158056431554,1.1243449435824273,0.0
0.6208277703604806,0.01929139165105758,1.81516955080853,1.1385897567451633,-0.7902413384826988,-0.12694965964658395,-1.807876258450918,0.156342503059455,0.15891390473778028,0.4832328883608088,1.128397724304094,0.0
0.6408544726301736,0.055084784116144196,1.7896696232543308,1.123553833942459,-0.7517961401352186,-0.16097018734896765,-1.7010263851191836,0.17344507093852765,0.1764529939046163,0.48214028120940733,1.1324414936313905,0.0
0.6608811748998665,0.0901376575976744,1.7526436740765103,1.1097752501117155,-0.6889291915371684,-0.19251225681502135,-1.5771034733026867,0.1885532202650428,0.19194982179227582,0.48101383579304297,1.1364759677586627,0.0
0.6809078771695595,0.12420619140479669,1.7034266903561144,1.097672654555928,-0.6051297777893745,-0.2212733669217161,-1.4380555053347361,0.20093330671351614,0.20465029749129648,0.47985363116953333,1.1405008635326255,0.0
0.7009345794392524,0.15704859508783112,1.6421201841517217,1.0875748898562312,-0.504888234984841,-0.24700601725646598,-1.2866325167374928,0.210107471275367,0.21406212585808446,0.4786597487660336,1.144515898472236,0.0
0.7209612817089452,0.18844042515580575,1.5695915033987322,1.0797098641499108,-0.3932512853160166,-0.26952891843662974,-1.1261450590081936,0.21583904907233237,0.21994061372164508,0.4774322723733215,1.1485207907885173,0.0
0.7409879839786382,0.21818800218468337,1.4873788514438804,1.0742013594305106,-0.27542523597000695,-0.2887330905574249,-0.9602086060397537,0.21811374686285812,0.22226951358194239,0.4761712881399164,1.1525152594043386,0.0
0.7610146862483311,0.2461385366437303,1.3975267229523471,1.0710725772757543,-0.15643910773781444,-0.3045831469970975,-0.7925028219836319,0.21711306315547937,0.22123380563954864,0.47487688456603344,1.156499023974139,0.0
0.7810413885180241,0.27218616982977384,1.3023816593021762,1.0702550279302512,-0.04087746727516017,-0.31711429451687684,-0.6265573759889668,0.2131828279730554,0.21718735858218582,0.47354915249737217,1.1604718049036047,0.0
0.801068090787717,0.29627372204602714,1.2043776108126643,1.071601371936843,0.06731720032958136,-0.32642576297411163,-0.46557342286173353,0.20679732655436958,0.2106160836815795,0.4721881851187405,1.1644333233692916,0.0
0.82109479305741,0.3183904577959316,1.1058367874952235,1.074900907760648,0.16497679119025777,-0.3326714408560656,-0.31228389409769675,0.19851932421201357,0.20209691204905073,0.4707940779475151,1.1683833013381941,0.0
0.8411214953271028,0.33856658522449307,1.0088063714280715,1.079896504467069,0.24977983532105336,-0.3360485474088839,-0.16885532764092204,0.1889561668657233,0.1922527357277854,0.46936692882693704,1.1723214615872586,0.0
0.8611481975967957,0.356865484816916,0.9149449796211467,1.0863018546753545,0.3202675104142739,-0.3367852560316675,-0.0368354311391807,0.17871387367965635,0.1817052249954177,0.4679068379192454,1.1762475277228392,0.0
0.8811748998664887,0.3733747910144239,0.8254653098753955,1.0938179884666144,0.37580668956299984,-0.3351282731747836,0.08284914284419548,0.1683535905306968,0.17103000549478767,0.46641390769864727,1.1801612242000974,0.0
0.9012016021361816,0.3881974161242396,0.7411312554907855,1.10214810253598,0.4165057034682812,-0.3313315966959049,0.18983382394393714,0.15835605085520113,0.16072017360996949,0.46488824294412573,1.184062276342339,0.0
0.9212283044058746,0.4014434193468769,0.6623001611318662,1.111009967303176,0.44309323835979175,-0.3256472495756866,0.2842173560109248,0.14909885177291715,0.15116301707879687,0.4633299507320861,1.1879504103602934,0.0
0.9412550066755675,0.41322333082667195,0.5889955739897528,1.1201454729904001,0.45677528436120984,-0.3183174368391056,0.3664906368290355,0.14084889700214184,0.14263181378214657,0.4617391404288412,1.1918253533713281,0.0
0.9612817089452603,0.42364321283493434,0.5209941004131199,1.1293272163366659,0.45908716731328947,-0.30956934189025515,0.4374047474425287,0.13376711053258572,0.13529088038391981,0.4601159236829352,1.1956868334186013,0.0
0.9813084112149533,0.4328014622856439,0.45791247253547973,1.138362312428678,0.45175480460059625,-0.29961233734751724,0.4978502271368919,0.12792223992883753,0.12920998003400153,0.4584604144173082,1.1995345794901475,0.0
1.0013351134846462,0.4407871547049878,0.3992846209671941,1.1470938184636001,0.43657530174610854,-0.28863712306879297,0.548760713936214,0.12330923644456734,0.12438338499582066,0.45677272882130043,1.2033683215379,0.0
1.0213618157543392,0.44767962058903504,0.3446232942023615,1.1554002534180743,0.4153217477237105,-0.27681624008757083,0.5910441490611118,0.11986848267813605,0.12074974446978061,0.45505298534249783,1.2071877904966422,0.0
1.041388518024032,0.4535489150187324,0.2934647214848682,1.1631937088280382,0.3896727704981978,-0.26430544296612446,0.6255398560723127,0.11750337299686749,0.11821019324487637,0.45330130467841884,1.2109927183028915,0.0
1.061415220293725,0.4584568647201686,0.24539748507181108,1.170416999878371,0.36116455251663127,-0.2512455033374268,0.6529969814348909,0.11609498505599933,0.11664341574332132,0.4515178097680436,1.2147828379137142,0.0
1.081441922563418,0.4624584281178766,0.20007816988539914,1.1770402315790038,0.33116158503164483,-0.23776412700715965,0.674068816513353,0.11551350157664173,0.11591733110270641,0.44970262578318554,1.2185578833254664,0.0
1.101468624833111,0.46560316430994364,0.15723680960335312,1.1830570734485988,0.3008420934797456,-0.2239777714145711,0.6893177796294254,0.11562659705333661,0.11589763537822705,0.44785588011970645,1.2223175895924638,0.0
1.1214953271028039,0.46793666465258965,0.11667501713230079,1.1884809607144189,0.27119436329100644,-0.20999323739563047,0.699226700947031,0.11630527409114569,0.11645371212229784,0.4459777023885754,1.2260616928455754,0.0
1.1415220293724968,0.469501850056344,0.07825927018771792,1.193341376791678,0.24302080386295866,-0.19590897487788175,0.7042131258874352,0.1174276982401787,0.11746247849413097,0.44406822440677224,1.229789930310744,0.0
1.1615487316421895,0.4703400765263475,0.04191132350017588,1.1976803219587793,0.21694725835505643,-0.18181609298423157,0.7046440946825092,0.11888157000253208,0.1188107437401239,0.44212758018803616,1.2335020403274277,0.0
1.1815754339118825,0.4704920211551445,0.007597231439848716,1.2015490368349555,0.19343574380881437,-0.16779908515178682,0.700850391622237,0.12056543590839187,0.12039646579572384,0.4401559059334601,1.2371977623669645,0.0
1.2016021361815754,0.4699983425610944,-0.024683929702503153,1.205005022211344,0.1727992688194244,-0.1539363127964135,0.6931386177686663,0.12238930143735208,0.12212931240681456,0.4381533400219318,1.2408768370508576,0.0
1.2216288384512684,0.4689001244879972,-0.05491090365485919,1.208109379236744,0.15521785127000115,-0.14030028895604157,0.6818011920185961,0.12427475777933106,0.12393072673336847,0.43612002300042185,1.244539006168978,0.0
1.2416555407209613,0.46723912048869404,-0.08305019996515862,1.2109244809262123,0.14075508447340426,-0.12695781082953458,0.6671239063253486,0.1261547878947155,0.12573367639621516,0.4340560975741196,1.2481840126976884,0.0
1.2616822429906542,0.46505782248045563,-0.10906490041192168,1.2135119761126782,0.12937475932329248,-0.11396998676648068,0.6493912031526939,0.12797334847150524,0.12748218655774124,0.43196170859641764,1.2518116008178803,0.0
1.2817089452603472,0.4623993793005724,-0.1329221589941605,1.2159311183840873,0.12095711357045498,-0.10139219669634819,0.6288895035066249,0.12968481553456515,0.12913074623117446,0.42983700305874556,1.2554215159329298,0.0
1.3017356475300401,0.459307394866769,-0.15459922169016746,1.218237406896969,0.11531442564408094,-0.08927401727151865,0.6059089712414768,0.13125336710913343,0.1306436582058552,0.4276821300802533,1.2590135046865651,0.0
1.321762349799733,0.45582563754217514,-0.1740878662296929,1.220481523834943,0.11220584689869484,-0.0776591377094773,0.5807439781020689,0.13265233643767396,0.13199436312030616,0.4254972408973459,1.262587314980648,0.0
1.341789052069426,0.451997691355779,-0.1913973093198062,1.2227085522025005,0.11135141837788072,-0.06658528941647165,0.553692414650282,0.1338635320271837,0.13316473419211564,0.4232824888530689,1.266142695992867,0.0
1.361815754339119,0.4478665767843411,-0.20655572857189475,1.2249574556226945,0.11244517100970192,-0.056084209397374275,0.5250540009548683,0.1348765114520648,0.13414433129246814,0.42103802938634616,1.2696793981943417,0.0
1.3818424566088119,0.4434743651277167,-0.21961058283122004,1.227260798990032,0.11516716836686522,-0.04618165298145479,0.4951278207959741,0.13568780242977516,0.13492960898616893,0.4187640200210709,1.2731971733671346,0.0
1.4018691588785048,0.43886180659815527,-0.2306279264780716,1.2296446859687884,0.11919434893782518,-0.03689746605090541,0.4642093465274688,0.13630007354639853,0.13552308093101578,0.4164606203550497,1.276695774621672,0.0
1.4218958611481975,0.4340679882170121,-0.23969091905715947,1.2321288869028888,0.12421004670501984,-0.028245721617732807,0.43258722165863006,0.13672126399084092,0.13593244929577825,0.4141279920488021,1.2801749564140723,0.0
1.4419225634178905,0.4291300335666501,-0.24689773251809943,1.234727128938146,0.1299121017628594,-0.020234920825393955,0.4005400396169426,0.13696368667025438,0.13616971253204826,0.4117662988142137,1.283634474563378,0.0
1.4619492656875834,0.4240828525170929,-0.25235905247785967,1.237447519149109,0.13601951054815126,-0.012868254520677056,0.3683333152358449,0.13704312263743823,0.13625026828255196,0.40937570640304727,1.287074086268695,0.0
1.4819759679572764,0.4189589453857204,-0.2561953565686226,1.240293071251139,0.14227760510149912,-0.0061439185331325,0.33621679937722787,0.1369779269931016,0.13619203044995412,0.4069563825953091,1.2904935501262298,0.0
1.5020026702269693,0.4137882627293673,-0.25853413281765486,1.2432623070625681,0.14846179057145198,-5.547370231028116e-05,0.3044222415411109,0.13678816722492992,0.13601458032141348,0.4045084971874737,1.2938926261462367,0.0
1.5220293724966623,0.4085981192158459,-0.2595071756760721,1.2463499052205285,0.15437990789802053,0.005407759554009171,0.2731616628159727,0.1364948144285036,0.13573837123988003,0.4020322219805673,1.2972710757698567,0.0
1.5420560747663552,0.4034131578408469,-0.2592480687499487,1.2495473716721313,0.15987332258013448,0.010260282827221115,0.24262616366059708,0.13611900591121295,0.13538400450565558,0.3995277307681099,1.3006286618858631,0.0
1.5620827770360481,0.3982553591695055,-0.25788993356707174,1.2528437090507363,0.16481686893024683,0.014519988001004057,0.21298525868914725,0.1356813946780496,0.13497159134198888,0.3969951993239177,1.3039651488473027,0.0
1.582109479305741,0.3931440892736583,-0.2555634947923594,1.2562260650746089,0.16911780119363498,0.018207722090134954,0.1843867044565445,0.13520159731465642,0.13452021193800037,0.39443480538976705,1.3072803024880322,0.0
1.602136181575434,0.38809617955682285,-0.2523954858417713,1.2596803434241706,0.1727139174780847,0.021346857422003356,0.15695676659342012,0.13469774728604217,0.13404747824803068,0.39184672866291986,1.3105738901391553,0.0
1.622162883845127,0.3831260316349641,-0.24850739609293554,1.263191764012356,0.1755710294092743,0.02396287461157944,0.13080085947880413,0.13418615600254852,0.13356920271568476,0.3892311507835117,1.3138456806453502,0.0
1.64218958611482,0.3782457407821169,-0.2440145426423593,1.2667453630136185,0.17767995006312412,0.026082964304986578,0.10600448467035715,0.13368107947183788,0.13309917069855812,0.38658825532180363,1.3170954443810947,0.0
1.6622162883845129,0.3734652320591754,-0.2390254361470746,1.2703264263266676,0.17905316565245344,0.027735652163065228,0.08263439290393279,0.13319458439939066,0.13264901053221534,0.3839182277652987,1.3203229532667808,0.0
1.6822429906542056,0.36879240402660474,-0.23364140162853433,1.2739208532032813,0.17972134383068616,0.028950450118129942,0.060739897753235766,0.13273650432037248,0.13222815198418125,0.38122125550572394,1.3235279807847222,0.0
1.7022696929238985,0.3642332758107705,-0.22795641079171336,1.2775154494937395,0.17972981452291564,0.02975753563661491,0.040354275924248534,0.1323144740150792,0.13184386158143496,0.37849752782587825,1.3267103019950528,0.0
1.7222963951935915,0.3597921341754464,-0.22205708176620303,1.2810981522818847,0.1791351394072648,0.030187459606923706,0.021496198515439255,0.13193402899343687,0.1315013418627476,0.37574723588634806,1.329869693551513,0.0
1.7423230974632844,0.35547167808699054,-0.21602280442279545,1.2846581895786526,0.1780018648383959,0.03027088257211803,0.004171148259716477,0.1315987563156957,0.13120388109886705,0.3729705727120911,1.3330059337171258,0.0
1.7623497997329773,0.351273159012396,-0.2099259537297296,1.2881861802083752,0.17639953148613075,0.03003833834820241,-0.011627211195780848,0.1313104832233324,0.13095304021827334,0.37016773317888907,1.336118802379758,0.0
1.7823765020026703,0.3471965158283637,-0.2038321592016132,1.2916741800731977,0.1743999932411223,0.029520027926418845,-0.02591552108917826,0.1310694919667811,0.130748863165668,0.3673389139996707,1.339208081067569,0.0
1.8024032042723632,0.3432405037349016,-0.19780060467310284,1.2951156816464795,0.17207507866409136,0.02874563989235471,-0.03871940170320673,0.13087474813688044,0.1305901014249245,0.3644843137107058,1.3422735529643444,0.0
