time,x,x_dot,z,z_dot,theta,theta_dot,u1,u2,x_ref,z_ref,theta_ref
0.0,0.40830606322713914,0.03233374416049481,0.5689932362320225,0.040560329421943764,-0.07241511435430968,-0.00998086515792855,0.2964707120541888,0.29668288361083595,0.5,1.0,0.0
0.020026702269692925,0.4083164049799554,0.0005170876408135891,0.5746481904391418,0.28274771035596596,-0.07244483312442887,-0.0014859385059608314,0.28356093773731206,0.2966828795619299,0.4999824541392403,1.0041887412073853,0.0
0.04005340453938585,0.4077047848864764,-0.030581004673953086,0.5849510170604637,0.5151413310660928,-0.061976974629145816,0.5233929247641532,0.2894384535796437,0.29668284675677054,0.4999298177883902,1.0083771884344908,0.0
0.06008010680907877,0.4064653980247127,-0.06196934308818272,0.5999818504786836,0.7515416709109927,-0.04572667644306091,0.8125149093042461,0.264121217734443,0.26672594885626855,0.49984209464164997,1.0125650477216688,0.0
0.0801068090787717,0.40474065046648294,-0.08623737791148842,0.6189208946685009,0.9469522094908629,-0.02741643161395046,0.9155122414555218,0.22394660898689486,0.22392627782009542,0.49971929085573213,1.0167520251505358,0.0
0.10013351134846463,0.4027152969029076,-0.10126767817876729,0.6405385990252062,1.080885217835264,-0.009150507789687968,0.9132961912131249,0.1930104856146213,0.1917904553464133,0.4995614150494292,1.0209378268645999,0.0
0.12016021361815754,0.4005370478599572,-0.10891245214751975,0.6638988466500867,1.168012381244028,0.008111596140418894,0.8631051965053431,0.16948823100571062,0.16759786048584743,0.49936847830300873,1.0251221590898847,0.0
0.14018691588785048,0.3983168898325664,-0.11100790136953893,0.6882921422918106,1.2196647820861926,0.023835900074406013,0.7862151966993562,0.15174441901494903,0.14951050888415549,0.499140494157436,1.0293047281555483,0.0
0.1602136181575434,0.39613688511263656,-0.1090002359964929,0.7131849127446618,1.24463852264256,0.03775082724424141,0.6957463584917701,0.13829420706202816,0.13592163722820996,0.4988774786134233,1.0334852405144925,0.0
0.1802403204272363,0.3940576265077411,-0.10396293024477303,0.7381741910788145,1.2494639167076396,0.049749005350539395,0.5999089053148985,0.12780978449055186,0.12542444553336066,0.49857945013030697,1.0376634027639664,0.0
0.20026702269692925,0.39212370991315126,-0.09669582972949296,0.7629473583905136,1.238658365584955,0.059823692849987085,0.5037343749723853,0.12004839038287418,0.1177307999107237,0.4982464296247522,1.0418389216661577,0.0
0.22029372496662217,0.3903684389378299,-0.08776354876606707,0.7872743804386506,1.2163511024068505,0.06803228234161182,0.4104294745812358,0.11403546503986374,0.11183397516146906,0.4978784404692846,1.0460115041687736,0.0
0.24032042723631508,0.38881634813088833,-0.07760454034707816,0.8109784350456255,1.1852027303487445,0.07447047715652787,0.32190974074580253,0.10937271167005394,0.10731450341953441,0.4974755084906501,1.0501808574256075,0.0
0.260347129506008,0.38748520128807057,-0.06655734214088838,0.8339237578356169,1.1472661394995685,0.07925533092649464,0.2392426884983383,0.10613570733119135,0.10423560104350792,0.4970376619680023,1.0543466888170925,0.0
0.28037383177570097,0.3863882242731461,-0.05484885074622344,0.8560176032803237,1.1046922722353412,0.08251537339138833,0.16300212324468552,0.10320707727467629,0.10147023359116633,0.4965649316309177,1.0585087059708387,0.0
0.30040053404539385,0.38553316646570407,-0.042752890372103475,0.8771769620989598,1.0579679409318021,0.08438291514407285,0.09337708763422557,0.1013883350506458,0.09981459097377136,0.49605735065723894,1.0626666167821521,0.0
0.3204272363150868,0.38492519848581386,-0.030398398994510776,0.8973521121602072,1.0087575030623661,0.08498983028891018,0.030345757241865806,0.09984883271590543,0.09843478448018816,0.49551495467074635,1.066820129434536,0.0
0.34045393858477974,0.3845657914460648,-0.017970351987454516,0.9165019161933717,0.9574902016582264,0.0844650067875729,-0.026241175066863867,0.09882072833365073,0.09756079543250823,0.4949377817386579,1.0709689524201722,0.0
0.3604806408544726,0.3844539153778976,-0.005593803408360961,0.9346005838985344,0.9049333852581324,0.0829326679805156,-0.07661694035286505,0.09827779215926602,0.09716444150898781,0.49432587236895703,1.0751127945603784,0.0
0.38050734312416556,0.38458648250990274,0.006628356600258678,0.9516367880621669,0.8518102081816227,0.08051096949242711,-0.12108492440442538,0.09769959567623522,0.09672498109528661,0.49367926950755014,1.0792513650260465,0.0
0.4005340453938585,0.3849574557966171,0.01854866433571853,0.967598218074149,0.7980715005991079,0.07731175356956224,-0.15996079614324263,0.09785506902185928,0.09701087753623193,0.49299801853525244,1.083384373358051,0.0
0.4205607476635514,0.38556007172418344,0.03013079637831529,0.9824942369898765,0.7448009457863739,0.07344015668627936,-0.1935798441641428,0.09762513428426281,0.09690236099156672,0.49228216726460267,1.087511529487638,0.0
0.44058744993324434,0.38638442819292174,0.04121782343691404,0.9963227366044982,0.6914249807310858,0.06899404235029076,-0.2223057167994322,0.09797759117490225,0.09736885170833931,0.4915317659365077,1.09163254375678,0.0
0.4606141522029373,0.38742001476545546,0.051779328626686355,1.009098731238336,0.6387997316918812,0.06406528886313127,-0.2464376743579733,0.09814424712981892,0.09764055522379433,0.49074686721671645,1.0957471269385064,0.0
0.48064085447263016,0.38865420147390856,0.061709335422655096,1.020831569465008,0.5866419113336127,0.058738501452656196,-0.2663393705237529,0.0991319288836322,0.09872715002869145,0.48992752619212343,1.0998549902572035,0.0
0.5006675567423231,0.3900744810796602,0.07101398028758232,1.0315547168864532,0.5361573710722509,0.05309329196877569,-0.282260474194026,0.10080483496629007,0.10049238405786207,0.48907380036690284,1.1039558454088796,0.0
0.520694259012016,0.39166807808019266,0.07967985002662203,1.0413216841100095,0.48834836117780966,0.04720391664412749,-0.2944687662324095,0.10295500227794319,0.10272916687243466,0.48818574965847245,1.108049404581401,0.0
0.540720961281709,0.3934214778270026,0.0876699873404962,1.0501998506075465,0.443908324876855,0.04113997501807251,-0.3031970813027491,0.10541267186149936,0.10526833624005716,0.48726343639328856,1.1121353804746905,0.0
0.5607476635514019,0.3953201183092014,0.09493202410993952,1.0582654242198515,0.4032786806152455,0.034966889026507006,-0.30865429957827545,0.10804102652317912,0.10797338744250376,0.48630692530247177,1.116213486320892,0.0
0.5807743658210948,0.397348230161422,0.10140559261103027,1.065599377855077,0.3666976817612703,0.02874615554968184,-0.3110366738412578,0.11073115654678597,0.1107355016060253,0.4853162835172637,1.1202834359044958,0.0
0.6008010680907877,0.39948880478016713,0.10702873093725489,1.0722842140313107,0.3342418088116812,0.022535422540626383,-0.3105366504527732,0.11339767724394355,0.11346922870659884,0.48429158056431554,1.1243449435824273,0.0
0.6208277703604806,0.40172366820498956,0.11174317124112099,1.0784014280838004,0.3058607026244837,0.01638844111215309,-0.3073490714236648,0.1159749921341518,0.11610881215695602,0.4832328883608088,1.128397724304094,0.0
0.6408544726301736,0.40403363804424264,0.11549849196265345,1.0840295603506451,0.2814066133422359,0.010354942679579687,-0.3016749216286697,0.11841400419998044,0.11860494499073228,0.48214028120940733,1.1324414936313905,0.0
0.6608811748998665,0.406398741440342,0.11825516980496789,1.0892427408130085,0.2606590231181755,0.0044804770220203335,-0.29372328287796784,0.12067958162311199,0.12092228522187756,0.48101383579304297,1.1364759677586627,0.0
0.6809078771695595,0.408798473832112,0.11998661958849875,1.094109652021381,0.24334556041863376,-0.0011937491604733486,-0.28371130912468423,0.12274817551408095,0.12303710188773254,0.47985363116953333,1.1405008635326255,0.0
0.7009345794392524,0.41121208010642696,0.12068031371574779,1.0986928401339706,0.22915940562947446,-0.006631010710516005,-0.27186307750213273,0.12460590339698982,0.12493537775026343,0.4786597487660336,1.144515898472236,0.0
0.7209612817089452,0.4136188422289755,0.12033810612742613,1.1030483173171832,0.21777385916063485,-0.011799164312494545,-0.2584076800989269,0.12624689389601315,0.12661117033066285,0.4774322723733215,1.1485207907885173,0.0
0.7409879839786382,0.41599835999443646,0.11897588827304946,1.1072254062065185,0.20885444446676765,-0.016670697743415182,-0.24357667154603221,0.12767185106001133,0.12806518371309078,0.4761712881399164,1.1525152594043386,0.0
0.7610146862483311,0.4183308141641366,0.11662270848500499,1.11126678328611,0.20206885397957078,-0.021222722285512488,-0.22760122710486502,0.12888679317032412,0.12930350937344146,0.47487688456603344,1.156499023974139,0.0
0.7810413885180241,0.4205972038686583,0.11331948522608556,1.1152086829739574,0.1970949843923707,-0.02543690686237739,-0.2107092288432453,0.12990193649166298,0.13033650756270065,0.47354915249737217,1.1604718049036047,0.0
0.801068090787717,0.4227795526421413,0.10911743867415104,1.119081228340189,0.19362726831157742,-0.029299355947851522,-0.19312245427370667,0.13073070106587645,0.13117780740622983,0.4721881851187405,1.1644333233692916,0.0
0.82109479305741,0.42486107974122056,0.10407635495396422,1.1229088579382902,0.19138147990506452,-0.03280043592940086,-0.17505399907746672,0.13138882415927927,0.13184341232379743,0.4707940779475151,1.1683833013381941,0.0
0.8411214953271028,0.42682633541897835,0.09826278388788903,1.1267108214401333,0.19009817509215432,-0.035934556441837094,-0.15670602562181132,0.13189357198573815,0.13235090222687862,0.46936692882693704,1.1723214615872586,0.0
0.8611481975967957,0.42866130052777257,0.09174825543970962,1.1305017197681715,0.18954491640190635,-0.0386999143534481,-0.1382678955805505,0.13226304505501477,0.13271872861219655,0.4679068379192454,1.1762475277228392,0.0
0.8811748998664887,0.4303534521892223,0.08460758307248412,1.1342920683341433,0.18951742829859133,-0.04109820863874679,-0.1199147142649343,0.13251557454266405,0.13296560058085347,0.46641390769864727,1.1801612242000974,0.0
0.9012016021361816,0.4318917982904595,0.07691730506186167,1.1380888648630354,0.18983982644460545,-0.0431343344208808,-0.10180628910670078,0.1326692081369087,0.1331099607445118,0.46488824294412573,1.184062276342339,0.0
0.9212283044058746,0.43326688425659476,0.06875429830676315,1.1418961461161443,0.19036406265544548,-0.04481606411492875,-0.08408648470239702,0.13274128374817037,0.1331695497863382,0.4633299507320861,1.1879504103602934,0.0
0.9412550066755675,0.4344707759390194,0.060194584121231715,1.1457155206098835,0.19096872468695344,-0.046153722950620445,-0.06688294178458576,0.13274808867608046,0.13316105753335067,0.4617391404288412,1.1918253533713281,0.0
0.9612817089452603,0.4354970225878898,0.051312332443521194,1.1495466671222074,0.19155732561620273,-0.047159865295781776,-0.05030711725806565,0.13270460062443376,0.13309985708444733,0.4601159236829352,1.1956868334186013,0.0
0.9813084112149533,0.43634060379229656,0.04217906022033842,1.1533877913428747,0.19205621103336068,-0.047848957226229005,-0.0344545965223618,0.13262430553974447,0.1329998170274073,0.4584604144173082,1.1995345794901475,0.0
1.0013351134846462,0.43699786402372426,0.03286301157138387,1.1572360354114655,0.19241220342953702,-0.048237069770431094,-0.01940562721010477,0.13251908591222508,0.1328731853642316,0.45677272882130043,1.2033683215379,0.0
1.0213618157543392,0.4374664380572361,0.023428701675593515,1.161087837257819,0.19259009231767976,-0.04834158625908117,-0.005225824432503849,0.13239917205219634,0.13273053757827702,0.45505298534249783,1.2071877904966422,0.0
1.041388518024032,0.4377451701163604,0.013936602956213861,1.164939238581552,0.19257006618664915,-0.0481809262781777,0.0080329990451735,0.13227314799616754,0.13258078037610663,0.45330130467841884,1.2109927183028915,0.0
1.061415220293725,0.4378340291319303,0.004442950778496404,1.1687861419582282,0.1923451688338025,-0.04777428995694618,0.020331816061576562,0.1321480026389254,0.13243120269924133,0.4515178097680436,1.2147828379137142,0.0
1.081441922563418,0.4377340220547373,-0.005000353859650537,1.1726245189290785,0.1919188485425212,-0.04714142552936659,0.03164322137897899,0.13202921699002132,0.1322875648516959,0.44970262578318554,1.2185578833254664,0.0
1.101468624833111,0.43744710673350023,-0.014345766061855007,1.1764505720162224,0.1913026543571894,-0.04630240516606221,0.0419510181652191,0.13192089057247947,0.13215421974269398,0.44785588011970645,1.2223175895924638,0.0
1.1214953271028039,0.4369761054701759,-0.023550063166216856,1.1802608546361757,0.19051413099767028,-0.04527742090676928,0.05124921296464665,0.13182584874061237,0.13203421822313477,0.4459777023885754,1.2260616928455754,0.0
1.1415220293724968,0.43632462014451434,-0.03257426628307908,1.1840523523394393,0.1895748851631839,-0.04408660316012042,0.05954088733244349,0.13174584369088665,0.13192951619083187,0.44406822440677224,1.229789930310744,0.0
1.1615487316421895,0.4354969494210654,-0.041383536172445806,1.1878225316646283,0.1885089662594459,-0.0427498568937488,0.06683731331858117,0.13168166769218537,0.13184108608695694,0.44212758018803616,1.2335020403274277,0.0
1.1815754339118825,0.4344980084773638,-0.04994704718508007,1.191569360145354,0.18734142403629592,-0.04128671689811596,0.07315699978164178,0.13163332339631809,0.13176908933624748,0.4401559059334601,1.2371977623669645,0.0
1.2016021361815754,0.43333325146839735,-0.05823785044832298,1.1952913027224896,0.18609712885677887,-0.03971622040991179,0.0785248244102079,0.13160017403388727,0.13171302812330543,0.4381533400219318,1.2408768370508576,0.0
1.2216288384512684,0.43200859686255444,-0.06623273029214634,1.198987299177993,0.1847998227751695,-0.03805679581704219,0.08297122964348053,0.13158108690915277,0.13167189020622602,0.43612002300042185,1.244539006168978,0.0
1.2416555407209613,0.4305303557219075,-0.07391205703234595,1.20265672697407,0.18347138980384808,-0.0363261663737729,0.08653147216346402,0.1315745659285826,0.13164428266024644,0.4340560975741196,1.2481840126976884,0.0
1.2616822429906542,0.4289051629704766,-0.08125963757154464,1.2062993535276452,0.1821313276787593,-0.034541267935347134,0.0892449219212888,0.1315788712995651,0.13162855268779652,0.43196170859641764,1.2518116008178803,0.0
1.2817089452603472,0.4271399116866827,-0.08826256418969597,1.209915281543796,0.1807964008075328,-0.03271817980286084,0.09115440662431412,0.13159212514891294,0.1316228942513656,0.42983700305874556,1.2554215159329298,0.0
1.3017356475300401,0.4252416904628215,-0.09491106119305788,1.2135048905912065,0.1794804523705337,-0.03087206784580266,0.09230559785290929,0.13161240244654449,0.13162543992641657,0.4276821300802533,1.2590135046865651,0.0
1.321762349799733,0.42321772388834167,-0.1011983287239907,1.2170687776466484,0.17819435277209453,-0.02901713913732409,0.09274643542392827,0.13163780715169002,0.13163433790709095,0.4254972408973459,1.262587314980648,0.0
1.341789052069426,0.42107531622959465,-0.1071203829373502,1.2206076988796715,0.17694606165115295,-0.027166607393101127,0.09252658721114816,0.13166653392938144,0.13164781452936333,0.4232824888530689,1.266142695992867,0.0
1.361815754339119,0.41882179839248673,-0.11267589185539512,1.2241225145057897,0.17574078130591414,-0.025332668547319748,0.09169694228906876,0.13169691613368986,0.1316642230248237,0.42103802938634616,1.2696793981943417,0.0
1.3818424566088119,0.41646447826331245,-0.11786600645871495,1.227614138116681,0.17458118054456653,-0.02352648582895665,0.09030913591815506,0.13172746101172028,0.13168207947426117,0.4187640200210709,1.2731971733671346,0.0
1.4018691588785048,0.41401059452535066,-0.12269418689808985,1.2310834915068454,0.17346766950822468,-0.021758183719321617,0.08841510548175174,0.13175687327436156,0.13170008711977638,0.4164606203550497,1.276695774621672,0.0
1.4218958611481975,0.41146727404388705,-0.12716602407317934,1.2345314656633595,0.17239870782570807,-0.020036850179676373,0.08606667698226209,0.13178406834567005,0.13171715035682502,0.4141279920488021,1.2801749564140723,0.0
1.4419225634178905,0.40884149290027677,-0.13128905718051306,1.237958888273618,0.171371130512933,-0.018370546538160747,0.08331518207578134,0.13180817659736369,0.13173237971916632,0.4117662988142137,1.283634474563378,0.0
1.4619492656875834,0.4061400411372463,-0.1350725881515234,1.2413664978349803,0.17038047806810733,-0.01676632442061495,0.0802111058772897,0.1318285399432863,0.13174508923486442,0.40937570640304727,1.287074086268695,0.0
1.4819759679572764,0.40336949125392535,-0.13852749416604573,1.2447549242218905,0.16942131934550375,-0.01523024910270871,0.0768037658953122,0.13184470223700173,0.13175478759645384,0.4069563825953091,1.2904935501262298,0.0
1.5020026702269693,0.4005361704614135,-0.14166603962559227,1.2481246753821618,0.16848755801356768,-0.013767428653698371,0.073141022450517,0.131856394725267,0.1317611643957462,0.4045084971874737,1.2938926261462367,0.0
1.5220293724966623,0.3976461366795746,-0.14450168909194305,1.2514761296888306,0.1675727153334409,-0.012382048236871258,0.06926902084135547,0.1318635178251532,0.131764072686883,0.4020322219805673,1.2972710757698567,0.0
1.5420560747663552,0.39470515822459645,-0.1470489227489073,1.2548095333675318,0.16667018393506042,-0.011077408929778102,0.06523196535465764,0.13186612037736717,0.1317635090243159,0.3995277307681099,1.3006286618858631,0.0
1.5620827770360481,0.3917186971059978,-0.14932305592993142,1.25812500234805,0.16577344902590938,-0.00985597043003434,0.0610719249871884,0.13186437741611753,0.13175959200935491,0.3969951993239177,1.3039651488473027,0.0
1.582109479305741,0.3886918958223806,-0.15134006418086127,1.2614225278489863,0.16487627504682198,-0.008719397020425403,0.05682867048044664,0.13185856737417764,0.13175254025681235,0.39443480538976705,1.3072803024880322,0.0
1.602136181575434,0.3856295675182557,-0.1531164152062452,1.2647019849925087,0.16397285717612037,-0.007668606180593291,0.052539541991605834,0.1318490495108179,0.1317426505623233,0.39184672866291986,1.3105738901391553,0.0
1.622162883845127,0.3825361893404441,-0.15466890889058052,1.267963143757803,0.1630579382647134,-0.006703819251671918,0.04823934644606874,0.13183624222048196,0.13173027692151715,0.3892311507835117,1.3138456806453502,0.0
1.64218958611482,0.37941589881235366,-0.15601452640452018,1.2712056816130708,0.16212689276339223,-0.005824613584546578,0.04396028335626705,0.13182060274934976,0.1317158109221623,0.38658825532180363,1.3170954443810947,0.0
1.6622162883845129,0.37627249302813054,-0.15717028921115533,1.274429197212657,0.16117577997931118,-0.00502997563139091,0.03973189765778333,0.13180260872099037,0.1316996639053414,0.3839182277652987,1.3203229532667808,0.0
1.6822429906542056,0.37310943045635364,-0.1581531285888438,1.2776332246042594,0.16020136958013012,-0.004318354473079451,0.035581057915572964,0.1317827417567873,0.13168225117719287,0.38122125550572394,1.3235279807847222,0.0
1.7022696929238985,0.36992983513449496,-0.1589797660929352,1.2808172474576294,0.15920114266849422,-0.003687715311188371,0.031531958094554,0.13176147336643337,0.13166397844341954,0.37849752782587825,1.3267103019950528,0.0
1.7222963951935915,0.36673650303058203,-0.15966660519564607,1.2839807128973417,0.15817327198562137,-0.0031355924917466135,0.02760614097208785,0.13173925318965973,0.13164523054567026,0.37574723588634806,1.329869693551513,0.0
1.7423230974632844,0.3635319103470593,-0.1602296341761385,1.2871230445952682,0.15711658489632443,-0.002659141667861435,0.023822541194258934,0.13171649958500328,0.13162636249452986,0.3729705727120911,1.3330059337171258,0.0
1.7623497997329773,0.3603182235433657,-0.16068434018468153,1.2902436548507321,0.15603051277319774,-0.0022551907490362326,0.02019754594126018,0.1316935924927796,0.13160769272610967,0.37016773317888907,1.336118802379758,0.0
1.7823765020026703,0.35709731085781893,-0.1610456342773365,1.2933419554559507,0.1549150302609312,-0.0019202893257217,0.016745071165726606,0.13167086843943054,0.13158949845002307,0.3673389139996707,1.339208081067569,0.0
