time,x,x_dot,z,z_dot,theta,theta_dot,u1,u2,x_ref,z_ref,theta_ref
0.0,-0.32410088223255085,-0.008300888779329413,1.4350068508498128,0.08936513914937844,-0.16128587452480628,-0.09982159568371891,0.056323374905001826,0.0574865511903199,0.5,1.0,0.0
0.020026702269692925,-0.32453751756204424,-0.02183176647466877,1.4345367859284142,-0.02350324606993698,-0.16235000935343172,-0.05320674143127415,0.05632337490924518,0.09108683227414421,0.4999824541392403,1.0041887412073853,0.0
0.04005340453938585,-0.3253244922362186,-0.03934873370871887,1.4323026211188594,-0.1117082404777335,-0.1356024979481123,1.3373755702659695,0.05632337490596993,0.07169553795444064,0.4999298177883902,1.0083771884344908,0.0
0.06008010680907877,-0.32641732113842914,-0.054641445110527306,1.428022092141275,-0.21402644887922223,-0.09661167062051576,1.9495413663798264,0.056323374908865104,0.06746927829786718,0.49984209464164997,1.0125650477216688,0.0
0.0801068090787717,-0.3277570114744307,-0.06698451680007747,1.4216428735655242,-0.3189609287875329,-0.04880290226050025,2.390438418000775,0.05632337490488136,0.06143504754794797,0.49971929085573213,1.0167520251505358,0.0
0.10013351134846463,-0.32926356442855503,-0.07532764770621628,1.413086855468593,-0.4278009048465633,0.002960856985418011,2.588187962295913,0.05632337493202965,0.05837004772665083,0.4995614150494292,1.0209378268645999,0.0
0.12016021361815754,-0.33085127972000467,-0.07938576457248038,1.402317794212592,-0.5384530628000537,0.056211170372779874,2.662515669368093,0.0563233749051053,0.05680999653296935,0.49936847830300873,1.0251221590898847,0.0
0.14018691588785048,-0.3324320709810223,-0.07903956305088185,1.3893180798684164,-0.6499857172087803,0.1096942046481807,2.674151713770042,0.05632337491889727,0.05632337493075312,0.499140494157436,1.0293047281555483,0.0
0.1602136181575434,-0.3339170114611532,-0.07424702400654701,1.3740817797296734,-0.7618150069371453,0.16302003510146285,2.6662915226641073,0.05744636040703116,0.05632337491516325,0.4988774786134233,1.0334852405144925,0.0
0.1802403204272363,-0.33521533814208604,-0.06491633404664232,1.3566223456320574,-0.872971704880797,0.21529234828790542,2.613615659322126,0.06031349496795749,0.05632337494437864,0.49857945013030697,1.0376634027639664,0.0
0.20026702269692925,-0.3362312718984025,-0.05079668781582421,1.3369741498194008,-0.9824097906328368,0.2642258123456735,2.446673202888404,0.06164148505941591,0.05632337490599884,0.4982464296247522,1.0418389216661577,0.0
0.22029372496662217,-0.3368722424071059,-0.032048525435167924,1.3151444170562392,-1.0914866381580806,0.3087749553085439,2.227457148143521,0.17257961968552255,0.16605499017545972,0.4978784404692846,1.0460115041687736,0.0
0.24032042723631508,-0.3362019401927943,0.03351511071557983,1.2942739183527288,-1.0435249351755251,0.34799454902955335,1.9609796860504718,0.21834748213914035,0.20781080068901983,0.4974755084906501,1.0501808574256075,0.0
0.260347129506008,-0.3336141268433501,0.12939066747221062,1.2755324191629434,-0.9370749594892742,0.37869837693580594,1.5351913953126277,0.2966828866747666,0.28492375687406096,0.4970376619680023,1.0543466888170925,0.0
0.28037383177570097,-0.32809203733638903,0.27610447534805554,1.261000011219585,-0.7266203971679197,0.39993706284077407,1.0619342952484097,0.29668288666258497,0.28330063553499757,0.4965649316309177,1.0585087059708387,0.0
0.30040053404539385,-0.31940111035204627,0.4345463492171383,1.2505518179319475,-0.5224096643818736,0.41043732812966716,0.5250132644446511,0.2924983173860551,0.27954610177138,0.49605735065723894,1.0626666167821521,0.0
0.3204272363150868,-0.307422135748376,0.5989487301835127,1.2440036158682035,-0.32741010318719344,0.4105635817083535,0.006312678934319305,0.24399817914591637,0.23277560812011167,0.49551495467074635,1.066820129434536,0.0
0.34045393858477974,-0.29264094966549337,0.7390593041441311,1.240020909868675,-0.19913529997642665,0.4017116768974917,-0.44259524054308524,0.2066322731416927,0.19766130780507016,0.4949377817386579,1.0709689524201722,0.0
0.3604806408544726,-0.2754900597690746,0.8575444948209373,1.2376156092031996,-0.1202650332737725,0.3856934967602367,-0.800909006862752,0.17597038756070812,0.1690123809504674,0.49432587236895703,1.0751127945603784,0.0
0.38050734312416556,-0.25636645620060095,0.9561801784236812,1.2359978954212345,-0.0808856890982485,0.36413270326687525,-1.078039674668072,0.154344268029388,0.1489717771171521,0.49367926950755014,1.0792513650260465,0.0
0.4005340453938585,-0.23558234283455468,1.0392056683023132,1.2346261809391852,-0.06858572410246708,0.3383107593509085,-1.2910971957983406,0.13544135490961282,0.13159615977008163,0.49299801853525244,1.083384373358051,0.0
0.4205607476635514,-0.21342324800038343,1.1079547417085622,1.2330334276449317,-0.07963766471267306,0.3094610132805057,-1.4424873035201398,0.12339537168134108,0.12061598838198193,0.49228216726460267,1.087511529487638,0.0
0.44058744993324434,-0.1901017806470293,1.1660733676677062,1.2309334377499581,-0.10499949474867795,0.27844505793698077,-1.5507977671762414,0.11185231557092863,0.10985384036077152,0.4915317659365077,1.09163254375678,0.0
0.4606141522029373,-0.16582052423825033,1.2140628204389485,1.2280456079186313,-0.14439149156634565,0.2458943837108353,-1.6275337113072734,0.1056996690267104,0.10425665117639815,0.49074686721671645,1.0957471269385064,0.0
0.48064085447263016,-0.14072749718849747,1.2546513524876435,1.224233574274442,-0.19060168220946494,0.2122583291217401,-1.68180272945476,0.09921613521218621,0.09831505746599721,0.48992752619212343,1.0998549902572035,0.0
0.5006675567423231,-0.11496766713649938,1.2879915025999047,1.2193468226585995,-0.24433758079211476,0.177973984292078,-1.7142172414831076,0.0962082752236964,0.0956953529869041,0.48907380036690284,1.1039558454088796,0.0
0.520694259012016,-0.08865652820817368,1.3155569464162842,1.2133283182610124,-0.30092521987935816,0.14335398693444,-1.7309998678819007,0.09364376237229186,0.09349929250801241,0.48818574965847245,1.108049404581401,0.0
0.540720961281709,-0.06190401416495308,1.3376257021610303,1.2061298229509954,-0.359924765500851,0.10869412070474627,-1.7329933114846858,0.09214810249042467,0.09229260754092641,0.48726343639328856,1.1121353804746905,0.0
0.5607476635514019,-0.034812180203598435,1.3545916980677322,1.1977294900789661,-0.4200166436014588,0.07422556922884475,-1.723427573795075,0.09339476125095934,0.09382182813159887,0.48630692530247177,1.116213486320892,0.0
0.5807743658210948,-0.007471878862092926,1.3670150670752754,1.1881826193760292,-0.47734353514684846,0.04017356640265849,-1.7026001413093133,0.09988627906246618,0.10059575104596041,0.4853162835172637,1.1202834359044958,0.0
0.6008010680907877,0.020035135411860337,1.375350713697663,1.1776963710632333,-0.5243124156397971,0.00676243528739332,-1.6705565557632585,0.10985637593541983,0.11088850806411621,0.48429158056431554,1.1243449435824273,0.0
0.6208277703604806,0.04761909805013419,1.3791981319136923,1.1665785154688935,-0.5558927797169947,-0.025752069900609426,-1.6257252594001368,0.12202582785271723,0.12340278089369333,0.4832328883608088,1.128397724304094,0.0
0.6408544726301736,0.07517276726378848,1.3776834606827146,1.1551986763165478,-0.5689919576172825,-0.057097295562078494,-1.5672612830734534,0.13515388885408902,0.13688356460316584,0.48214028120940733,1.1324414936313905,0.0
0.6608811748998665,0.10256776314458294,1.3697497940397227,1.143950359107105,-0.5624158604721474,-0.08699508324127,-1.4948893839595767,0.14824218388573973,0.1503149440461686,0.48101383579304297,1.1364759677586627,0.0
0.6809078771695595,0.12965598356201108,1.3544110208714075,1.1332202257154558,-0.536506669582461,-0.11517573051742114,-1.409032363807555,0.16047283840775062,0.16286319017078327,0.47985363116953333,1.1405008635326255,0.0
0.7009345794392524,0.15627476846328697,1.330939245063795,1.1233632302547094,-0.4928497730373129,-0.14139054517912447,-1.310740733085165,0.1712165468855067,0.17388496264867515,0.4786597487660336,1.144515898472236,0.0
0.7209612817089452,0.18225448701303187,1.298985927487245,1.1146840539646519,-0.4339588145028823,-0.16542290018907593,-1.2016177504975754,0.1800189814510331,0.18291488040366766,0.4774322723733215,1.1485207907885173,0.0
0.7409879839786382,0.20742725930343878,1.2586386145203456,1.1074244731877534,-0.3629790388449264,-0.1870968769734768,-1.083698839220045,0.18659381395053196,0.18965894631570152,0.4761712881399164,1.1525152594043386,0.0
0.7610146862483311,0.23163562708434007,1.2104183890450644,1.1017563293632016,-0.2834071912275946,-0.20628319416397836,-0.9593158595250793,0.19081042087191125,0.19398247398904542,0.47487688456603344,1.156499023974139,0.0
0.7810413885180241,0.2547401930045015,1.155228296008071,1.0977795072914651,-0.19884110358682267,-0.22290226227450927,-0.8309534055265426,0.192678953252653,0.19589504120421555,0.47354915249737217,1.1604718049036047,0.0
0.801068090787717,0.27662551192848156,1.0942659461990012,1.095524200811392,-0.11276532400366084,-0.23692447232961197,-0.7011105027551372,0.1923316694596956,0.19553149389300437,0.4721881851187405,1.1644333233692916,0.0
0.82109479305741,0.29720381915089605,1.0289153611207238,1.0949566451508677,-0.028377783026214187,-0.2483679918341652,-0.5721759752276574,0.19000136714156718,0.19312988727765984,0.4707940779475151,1.1683833013381941,0.0
0.8411214953271028,0.31641647685350727,0.9606328851305613,1.0959874667168645,0.05154107829984404,-0.2572944661242918,-0.44632371450633024,0.18599736977649123,0.18900688133362376,0.46936692882693704,1.1723214615872586,0.0
0.8611481975967957,0.3342332828997751,0.8908403023133908,1.0984818140985042,0.12471736908198093,-0.26380309863263574,-0.32543162541719817,0.18067974176718576,0.18353129776817123,0.4679068379192454,1.1762475277228392,0.0
0.8811748998664887,0.35064999239323236,0.8208354746728632,1.1022704737312583,0.18943298163770217,-0.2680236332616682,-0.21102673145162598,0.17443264336778455,0.1770967760167812,0.46641390769864727,1.1801612242000974,0.0
0.9012016021361816,0.36568453907864634,0.7517273342706993,1.1071612285690147,0.24453774188781843,-0.2701087918097459,-0.10425792740388574,0.1676382869484635,0.1700950266100467,0.46488824294412573,1.184062276342339,0.0
0.9212283044058746,0.3793725041291646,0.6843982525259148,1.11294979183517,0.28942816330776944,-0.2702267208589612,-0.005896452460763785,0.16065347664824028,0.16289172323659903,0.4633299507320861,1.1879504103602934,0.0
0.9412550066755675,0.391762365506465,0.6194930688650172,1.1194297506606117,0.3239979412720857,-0.26855395775041296,0.08363815542741164,0.15379082422050017,0.15580719790847317,0.4617391404288412,1.1918253533713281,0.0
0.9612817089452603,0.40291098299958505,0.5574308746560037,1.1264010915078155,0.3485670423601906,-0.2652695480842324,0.16422048330902764,0.14730610634836602,0.14910358758444528,0.4601159236829352,1.1956868334186013,0.0
0.9813084112149533,0.4128796533839357,0.49843351921753076,1.1336770414940558,0.36379749931200756,-0.2605502202067417,0.23596639387453733,0.1413925490879491,0.14297893145205376,0.4584604144173082,1.1995345794901475,0.0
1.0013351134846462,0.42173093138681705,0.4425639001440676,1.141089129935537,0.3706044220740624,-0.25456646691516177,0.29918766457899615,0.13618145871203022,0.13756766316541127,0.45677272882130043,1.2033683215379,0.0
1.0213618157543392,0.42952628349026195,0.38976760517224446,1.148490527259839,0.37006986621509264,-0.2474799891288386,0.35432388931615744,0.13174740982654365,0.13294605681263466,0.45505298534249783,1.2071877904966422,0.0
1.041388518024032,0.43632454140339044,0.33991289565642446,1.1557578295695023,0.36336511548316786,-0.23944229573983797,0.4018846694500342,0.12811651722763714,0.129140814300531,0.45330130467841884,1.2109927183028915,0.0
1.061415220293725,0.44218105250251577,0.29282555495626617,1.1627915278021286,0.3516849116313139,-0.2305942054971763,0.4424045121330838,0.12527606509973527,0.1261390158550922,0.4515178097680436,1.2147828379137142,0.0
1.081441922563418,0.4471473888088225,0.24831681531533625,1.1695154285377132,0.33619503677922485,-0.22106599169377372,0.476410690170126,0.12318416288618267,0.12389806604885911,0.44970262578318554,1.2185578833254664,0.0
1.101468624833111,0.4512714672344307,0.20620392128040876,1.1758752893103663,0.31799303863265727,-0.21097793533036657,0.5044028181703593,0.12177855313159479,0.1223547400815587,0.44785588011970645,1.2223175895924638,0.0
1.1214953271028039,0.45459794327526076,0.1663238020415047,1.1818369061876683,0.298080843865096,-0.2004410940620168,0.5268420634174862,0.1209841143477306,0.12143286672957528,0.4459777023885754,1.2260616928455754,0.0
1.1415220293724968,0.4571687600479832,0.1285408386361204,1.1873838557152487,0.2773474763790209,-0.18955814129078805,0.5441476385614359,0.12071891934540142,0.12104951195043406,0.44406822440677224,1.229789930310744,0.0
1.1615487316421895,0.45902375836987663,0.09274991609467198,1.1925150548754402,0.25655995800957515,-0.17842417400571414,0.5566983642536971,0.12089890490510932,0.12111972152205545,0.44212758018803616,1.2335020403274277,0.0
1.1815754339118825,0.4602012774385266,0.05887595343250041,1.1972422660764461,0.23636056005029524,-0.1671274301590214,0.5648371923346369,0.12144134647733255,0.12156004280493145,0.4401559059334601,1.2371977623669645,0.0
1.2016021361815754,0.4607386970330135,0.02687097972434529,1.2015876431151324,0.21726885193431297,-0.15574987736084805,0.5688776399086666,0.12226731783529532,0.12229098725902375,0.4381533400219318,1.2408768370508576,0.0
1.2216288384512684,0.460672890422861,-0.003290330507624624,1.205581387219493,0.19968720521802935,-0.14436767023949565,0.5691103560676205,0.12330337796778036,0.12323871293535611,0.43612002300042185,1.244539006168978,0.0
1.2416555407209613,0.4600405715393759,-0.03161594417425735,1.2092595622264217,0.18390875034644363,-0.13305147974399265,0.5658095247751487,0.12448264890764442,0.1243360808655706,0.4340560975741196,1.2481840126976884,0.0
1.2616822429906542,0.45887853096239334,-0.058102028849126096,1.2126621017024073,0.17012697379928196,-0.12186671137342499,0.559238418528384,0.12574544176443184,0.12552325414365434,0.43196170859641764,1.2518116008178803,0.0
1.2817089452603472,0.4572237631332898,-0.08273839145517892,1.2158310284348095,0.15844633662011195,-0.11087363375753638,0.5496538807944306,0.12703954385924926,0.126747956472818,0.42983700305874556,1.2554215159329298,0.0
1.3017356475300401,0.45511349278830576,-0.1055135172492013,1.2188088967944637,0.14889341798270547,-0.10012744032786912,0.5373096714833633,0.1283202580261738,0.12796548439692632,0.4276821300802533,1.2590135046865651,0.0
1.321762349799733,0.45258511282670955,-0.12641899807981039,1.221637460707914,0.1414281956725094,-0.08967826559533593,0.522458736626661,0.12955026748790147,0.12913854779961786,0.4254972408973459,1.262587314980648,0.0
1.341789052069426,0.4496760490297876,-0.145453189846098,1.22435656445333,0.13595518727080372,-0.07957117538171112,0.5053545106812408,0.13069938068727627,0.13023699279336717,0.4232824888530689,1.266142695992867,0.0
1.361815754339119,0.4464235688886793,-0.16262400705541377,1.2270032498391499,0.13233426929098524,-0.06984614839240202,0.48625134946545456,0.13174418845577163,0.13123743911499486,0.42103802938634616,1.2696793981943417,0.0
1.3818424566088119,0.44286455209518305,-0.1779508396748124,1.2296110705854175,0.13039103731337992,-0.060538064772635444,0.46540418098832903,0.13266764878039347,0.1321228477774327,0.4187640200210709,1.2731971733671346,0.0
1.4018691588785048,0.43903523934134475,-0.19146563769191588,1.232209602175387,0.12992657949847894,-0.05167671515813742,0.44306748072490104,0.13345860700989914,0.1328820276663012,0.4164606203550497,1.276695774621672,0.0
1.4218958611481975,0.4349709744382255,-0.20321324515596015,1.2348241329415766,0.13072653830947795,-0.04328684092876364,0.4194937114686885,0.1341112586344771,0.13350908881002374,0.4141279920488021,1.2801749564140723,0.0
1.4419225634178905,0.43070595271978723,-0.2132510859219157,1.2374755198570206,0.13256934577220217,-0.03538821310311483,0.39493139128244015,0.1346245636082012,0.13400285140833848,0.4117662988142137,1.283634474563378,0.0
1.4619492656875834,0.42627298642155426,-0.22164831491164813,1.2401801905943037,0.13523353686415351,-0.0279957539573292,0.36962295728928135,0.1350016234627101,0.1343662215788486,0.40937570640304727,1.287074086268695,0.0
1.4819759679572764,0.4217032953394854,-0.22848455410344193,1.2429502720043855,0.1385040705040897,-0.021119702334428708,0.34380258114502477,0.13524903443203448,0.13460554649959422,0.4069563825953091,1.2904935501262298,0.0
1.5020026702269693,0.4170263286941689,-0.23384833226582497,1.2457938243124786,0.1421776154046621,-0.01476582093243234,0.3176940700998183,0.13537623108768518,0.13472996277952395,0.4045084971874737,1.2938926261462367,0.0
1.5220293724966623,0.4122696218542295,-0.23783534199697054,1.2487151600462965,0.14606678669088827,-0.008935641717918523,0.2915089607256908,0.13539483577200645,0.13475075263961847,0.4020322219805673,1.2972710757698567,0.0
1.5420560747663552,0.4074586895025567,-0.24054661758363846,1.2517152269967742,0.15000334752388567,-0.003626744034954592,0.2654448841481965,0.1353180290175304,0.1346807224048103,0.3995277307681099,1.3006286618858631,0.0
1.5620827770360481,0.40261695503199396,-0.2420867235281358,1.2547920353278235,0.1538404165524618,0.0011669410488462301,0.23968425419004108,0.1351599553815259,0.13453361710280895,0.3969951993239177,1.3039651488473027,0.0
1.582109479305741,0.39776571448198833,-0.2425620275002805,1.2579411102459377,0.1574537459057129,0.005454807142189631,0.21439330466717005,0.13493517754082954,0.1343235834597633,0.39443480538976705,1.3072803024880322,0.0
1.602136181575434,0.39292413219806666,-0.24207911419608236,1.2611559533372307,0.16074215456465182,0.009249236743923686,0.18972148008670273,0.13465818933145976,0.13406469151556463,0.39184672866291986,1.3105738901391553,0.0
1.622162883845127,0.3881092646118233,-0.24074337931216683,1.2644284976909461,0.16362721768576488,0.012565260059497227,0.16580116577867687,0.13434299575659372,0.13377052252195787,0.3892311507835117,1.3138456806453502,0.0
1.64218958611482,0.38333610807980134,-0.23865782660109985,1.267749544157504,0.1660523233278973,0.015420214646319985,0.14274772934113794,0.13400276502645514,0.13345382792971494,0.38658825532180363,1.3170954443810947,0.0
1.6622162883845129,0.37861766654851164,-0.2359220765644854,1.2711091684355305,0.16798121390131984,0.017833411351213607,0.12065983524468091,0.13364955469773848,0.1331262613744992,0.3839182277652987,1.3203229532667808,0.0
1.6822429906542056,0.3739650348821267,-0.23263158331924888,1.2744970910502238,0.16939613073467147,0.01982581111842942,0.0996199883607909,0.13329411106677333,0.13279818274782,0.38122125550572394,1.3235279807847222,0.0
1.7022696929238985,0.3693874939455308,-0.22887704682979546,1.2779030045862407,0.17029567680084656,0.021419716311900518,0.07969525967355483,0.13294573839412005,0.1324785309405132,0.37849752782587825,1.3267103019950528,0.0
1.7222963951935915,0.36489261392379757,-0.2247440010866608,1.2813168546971103,0.17069250554348459,0.022638479271793913,0.06093814799466968,0.1326122323875879,0.13217475975734108,0.37574723588634806,1.329869693551513,0.0
1.7423230974632844,0.3604863628281629,-0.2203125547817341,1.284729073370404,0.17061093366468133,0.023506229961744732,0.04338753449754098,0.13229987072437296,0.13189282990008241,0.3729705727120911,1.3330059337171258,0.0
1.7623497997329773,0.3561732176425299,-0.21565725928164914,1.288130764640374,0.17008456349849385,0.02404762379467625,0.02706969164657549,0.13201345232388292,0.13163724887578349,0.37016773317888907,1.336118802379758,0.0
1.7823765020026703,0.35195627606579355,-0.2108470788368181,1.291513844382213,0.1691539870919517,0.024287610073887644,0.011999313960570041,0.13175637651936442,0.13141115013644897,0.3673389139996707,1.339208081067569,0.0
1.8024032042723632,0.34783736727494774,-0.20594543954229177,1.2948711369840429,0.16786463009149413,0.02425122096196416,-0.0018194555961738232,0.13153075320620267,0.13121640268623164,0.3644843137107058,1.3422735529643444,0.0
