time,x,x_dot,z,z_dot,theta,theta_dot,u1,u2,x_ref,z_ref,theta_ref
0.0,-0.2742916154477275,0.01864345203394646,0.891950211964187,0.0247398571353227,0.06232587042284299,-0.09728282766439607,0.23255988866107047,0.23286984856259407,0.5,1.0,0.0
0.020026702269692925,-0.27348957932648194,0.0401018060622798,0.8954064683494324,0.1728128192622678,0.0606298897391554,-0.08479903418437987,0.2264790911743185,0.25837574012429604,0.4999824541392403,1.0041887412073853,0.0
0.04005340453938585,-0.27224089956825787,0.06243398791120357,0.9021085569585414,0.3351044304554521,0.08445266335561524,1.1911386808229918,0.056323374995141395,0.06503739967915659,0.4999298177883902,1.0083771884344908,0.0
0.06008010680907877,-0.27088461729117685,0.06781411385405103,0.9066780900881201,0.22847665647893395,0.11520291899794516,1.537512782116496,0.05632337498798986,0.06583193880248538,0.49984209464164997,1.0125650477216688,0.0
0.0801068090787717,-0.2693770255523369,0.07537958694199932,0.9091263548996782,0.12241324057790626,0.15349400575519878,1.914554337862683,0.056323375038905055,0.06116409316382902,0.49971929085573213,1.0167520251505358,0.0
0.10013351134846463,-0.2676707394851216,0.08531430336076515,0.9093813973155314,0.012752120792658583,0.19556554678940458,2.1035770517102828,0.10237978605309286,0.1018459310923987,0.4995614150494292,1.0209378268645999,0.0
0.12016021361815754,-0.2655033513776395,0.10836940537410698,0.9087062124104525,-0.03375924525394415,0.237105923958637,2.07701885846162,0.1493646565990834,0.14451744553229212,0.49936847830300873,1.0251221590898847,0.0
0.14018691588785048,-0.262491856039837,0.15057476689012284,0.9083824452673818,-0.01618835715353616,0.2746696211211389,1.878184858125096,0.2959687743732008,0.28890788502500964,0.499140494157436,1.0293047281555483,0.0
0.1602136181575434,-0.2574478462167739,0.25220049115315424,0.9125613894606909,0.20894720966545582,0.3065020993813988,1.591623913012993,0.29668288581307245,0.2842967447995676,0.4988774786134233,1.0334852405144925,0.0
0.1802403204272363,-0.25007469689315376,0.36865746618100836,0.9211003626414029,0.42694865903560186,0.3283646865426487,1.0931293580624977,0.2505353677427212,0.2378442236841157,0.49857945013030697,1.0376634027639664,0.0
0.20026702269692925,-0.2405277121849026,0.4773492354125578,0.9326067040991267,0.5753170728861896,0.34004017579100826,0.5837744624179795,0.2118921683117882,0.201055111739275,0.4982464296247522,1.0418389216661577,0.0
0.22029372496662217,-0.22902113171955726,0.5753290232672669,0.9459678319287506,0.6680563914811893,0.3430318176118387,0.14958209104151976,0.1825171670565672,0.1734330918077452,0.4978784404692846,1.0460115041687736,0.0
0.24032042723631508,-0.21577308270999312,0.662402450478207,0.9603602395711162,0.7196203821182813,0.33875348044406234,-0.21391685838882074,0.15849069666572438,0.15106235086002337,0.4974755084906501,1.0501808574256075,0.0
0.260347129506008,-0.20100353519859157,0.7384773755700781,0.9751286608218334,0.7384210625358616,0.328536675855919,-0.5108402294071661,0.14105689682155487,0.1350364191144455,0.4970376619680023,1.0543466888170925,0.0
0.28037383177570097,-0.1848988977824859,0.8052318708052841,0.9898107486299659,0.7341043904066274,0.3135160892415767,-0.7510293307171121,0.12652661507271135,0.12178712169207369,0.4965649316309177,1.0585087059708387,0.0
0.30040053404539385,-0.1676342123842492,0.8632342699118353,1.0040302597142257,0.7109755542129893,0.2947253768304425,-0.939535620556714,0.11657032057341875,0.11286654018406676,0.49605735065723894,1.0626666167821521,0.0
0.3204272363150868,-0.149350495498315,0.9141858442967096,1.0175390509615756,0.6754395623674945,0.27300131940504885,-1.0862028712696756,0.1074497031600517,0.1048205714948412,0.49551495467074635,1.066820129434536,0.0
0.34045393858477974,-0.13018455492634493,0.958297028598504,1.0301139009982536,0.6287425018339023,0.24921070957129415,-1.189530491687734,0.10208542617926632,0.10016376501253223,0.4949377817386579,1.0709689524201722,0.0
0.3604806408544726,-0.1102436540646777,0.9970450430833608,1.0416324810178326,0.575929000978946,0.22392487805401545,-1.2642915758639355,0.09652429618190847,0.09517089593046774,0.49432587236895703,1.0751127945603784,0.0
0.38050734312416556,-0.08963663681921205,1.0303508622732822,1.0519634318648963,0.5165475423531803,0.19760247604353387,-1.316120100524079,0.09393238188486475,0.09292713689585863,0.49367926950755014,1.0792513650260465,0.0
0.4005340453938585,-0.06845038486171526,1.0593125978748397,1.0610557665679066,0.45461673515051926,0.1705249293013587,-1.353877337108757,0.09106636316939662,0.0904243233270928,0.49299801853525244,1.083384373358051,0.0
0.4205607476635514,-0.046772766802932256,1.08388090293915,1.0688488705137207,0.389655197290703,0.14298492874737834,-1.3770000276990184,0.08991742886338207,0.089558242149997,0.49228216726460267,1.087511529487638,0.0
0.44058744993324434,-0.024681251052829718,1.104575787505127,1.0753288928264113,0.32400111563453393,0.11521005785059521,-1.3887435448391565,0.08914278176147929,0.0890557785293122,0.4915317659365077,1.09163254375678,0.0
0.4606141522029373,-0.0022515601617975195,1.12148454455161,1.0804908015689343,0.25809543712614486,0.08741868884724646,-1.3895684501674386,0.08867316392526585,0.0888172757927303,0.49074686721671645,1.0957471269385064,0.0
0.48064085447263016,0.020441811034488437,1.1346685598142978,1.084335884747766,0.19225415894157988,0.05979569231988541,-1.3811498263680528,0.08984364302732309,0.090187845480878,0.48992752619212343,1.0998549902572035,0.0
0.5006675567423231,0.04332899480169351,1.144359188360254,1.0869113002969988,0.12877077746164084,0.03250057230086927,-1.3647560009508062,0.0895200583009034,0.09006352601327366,0.48907380036690284,1.1039558454088796,0.0
0.520694259012016,0.06633577516427656,1.1503390181291526,1.0882180254981701,0.06533626005857028,0.005691701541235904,-1.3404435379816686,0.09290348505351632,0.09362503992573204,0.48818574965847245,1.108049404581401,0.0
0.540720961281709,0.08939273930435734,1.1528482070040393,1.088364427058855,0.007320078034244254,-0.02048993702774232,-1.3090819284489104,0.09935982713474521,0.1002887334522614,0.48726343639328856,1.1121353804746905,0.0
0.5607476635514019,0.11242682707760399,1.1517043886623322,1.087548285016874,-0.040807102099051036,-0.045880340788469844,-1.2695201880363762,0.10785132335378732,0.10901138573624991,0.48630692530247177,1.116213486320892,0.0
0.5807743658210948,0.13535542642433562,1.1464299673365814,1.0860256547998866,-0.07613151084937347,-0.07029689454522767,-1.2208276878378916,0.11740898296308326,0.11881109262066444,0.4853162835172637,1.1202834359044958,0.0
0.6008010680907877,0.15808410322015357,1.1364338397908966,1.0840815162619986,-0.09720692689439527,-0.09354871495059844,-1.1625910202685388,0.12721807861989062,0.12885987872158874,0.48429158056431554,1.1243449435824273,0.0
0.6208277703604806,0.18050738883354403,1.1211642806695232,1.0820050846800071,-0.10382157909957399,-0.11544722297092255,-1.0949254010162037,0.13662567206147708,0.13849243123034397,0.4832328883608088,1.128397724304094,0.0
0.6408544726301736,0.20251180543645883,1.1002208301457403,1.0800701868783888,-0.09674489008090979,-0.13581598112785873,-1.0184379078468104,0.14512578662103967,0.1471922003925761,0.48214028120940733,1.1324414936313905,0.0
0.6608811748998665,0.2239803258461528,1.0734260204846984,1.078520356005409,-0.0774915436489908,-0.15449906072827777,-0.9341539800209533,0.15235130738116473,0.15458366233757248,0.48101383579304297,1.1364759677586627,0.0
0.6809078771695595,0.24479750410765955,1.0408589130753372,1.077558409886156,-0.048097305962660375,-0.17136765928099928,-0.8434299276360756,0.1580635985691613,0.16042224477299027,0.47985363116953333,1.1405008635326255,0.0
0.7009345794392524,0.2648545982961082,1.002854709422433,1.0773401429749137,-0.010913345562112778,-0.18632473246207007,-0.7478536590535394,0.16214200322830363,0.16458391503715333,0.4786597487660336,1.144515898472236,0.0
0.7209612817089452,0.2840541230455277,0.9599762374709754,1.0779717100627992,0.031578354394278495,-0.19930758048836483,-0.6491424013147413,0.16457113593992634,0.16705239883336503,0.4774322723733215,1.1485207907885173,0.0
0.7409879839786382,0.3023134203356032,0.9129648645037768,1.079510193238571,0.07692415878857804,-0.21028845703686042,-0.5490438274247778,0.16542606751285435,0.16790413352029246,0.4761712881399164,1.1525152594043386,0.0
0.7610146862483311,0.3195670043597667,0.862679201208175,1.0819667856087098,0.12282961850694389,-0.2192733924130115,-0.44924676880755293,0.16485544239076805,0.16729103447251423,0.47487688456603344,1.156499023974139,0.0
0.7810413885180241,0.33576760355652174,0.8100299598377526,1.085311989635456,0.16726020133730876,-0.22629951566184714,-0.3513061624417846,0.1630630641327517,0.16542164433786044,0.47354915249737217,1.1604718049036047,0.0
0.801068090787717,0.3508859720777325,0.7559184260605364,1.0894822209061057,0.2085115635324919,-0.23143122576551164,-0.25658550518322076,0.16028870828671055,0.16254146134460676,0.4721881851187405,1.1644333233692916,0.0
0.82109479305741,0.36490966034681577,0.7011844134541649,1.0943872270815493,0.24525030877218584,-0.23475559840689958,-0.16621863206940385,0.1567891605387262,0.15891348149307666,0.4707940779475151,1.1683833013381941,0.0
0.8411214953271028,0.37784101098417533,0.6465675318679768,1.0999177755223069,0.2765274220378724,-0.2363774221193503,-0.08109118562253187,0.1528206279974195,0.1548001419206467,0.46936692882693704,1.1723214615872586,0.0
0.8611481975967957,0.3896946791687486,0.5926834092286651,1.1059531305059302,0.3017677491811654,-0.23641423410448958,-0.0018405992569705404,0.14862366912895542,0.15044784941251785,0.4679068379192454,1.1762475277228392,0.0
0.8811748998664887,0.4004949683679026,0.5400144599576984,1.1123679296310027,0.3207399562536218,-0.23499167235997553,0.07112808722570362,0.14441156862432022,0.146075052049131,0.46641390769864727,1.1801612242000974,0.0
0.9012016021361816,0.41027323159862855,0.4889131615362964,1.119038173192813,0.3335121780905156,-0.23223954421880222,0.13760640705866606,0.14036260017087426,0.14186440425034683,0.46488824294412573,1.184062276342339,0.0
0.9212283044058746,0.4190655270928222,0.43961477470968224,1.1258461499274965,0.34039883673418014,-0.22828848203486857,0.19755310919668587,0.13661634620459445,0.13795896193210083,0.4633299507320861,1.1879504103602934,0.0
0.9412550066755675,0.42691064726824884,0.3922560087713315,1.1326842282782814,0.3419039175392438,-0.2232671209380484,0.2510680548410038,0.13327357507110493,0.13446196289292728,0.4617391404288412,1.1918253533713281,0.0
0.9612817089452603,0.4338485747948838,0.3468963763317483,1.1394575330434809,0.3386652382599684,-0.21730008722083713,0.29835168586056193,0.13039870220188213,0.13143942171498796,0.4601159236829352,1.1956868334186013,0.0
0.9813084112149533,0.43991936685023114,0.3035396027673655,1.1460855938028056,0.33140303796623327,-0.21050669056171972,0.33966983295587405,0.12802409925514519,0.12892460484626497,0.4584604144173082,1.1995345794901475,0.0
1.0013351134846462,0.4451624293526408,0.26215312512048067,1.1525030960626,0.3208751129897128,-0.2030001867797528,0.37532518909834756,0.12615537589235692,0.12692348582166402,0.45677272882130043,1.2033683215379,0.0
1.0213618157543392,0.4496161193959596,0.22268450216594105,1.1586598879777938,0.30783959575969677,-0.19488747147352103,0.405635765311583,0.12477692791265022,0.12542045565232038,0.45505298534249783,1.2071877904966422,0.0
1.041388518024032,0.4533176039234095,0.18507422637249546,1.164520399557982,0.2930255790094077,-0.1862690737352942,0.43091988691134214,0.12385724776605958,0.12438377266280055,0.45330130467841884,1.2109927183028915,0.0
1.061415220293725,0.45630290250196237,0.14926492892764595,1.1700626228025892,0.2771111622303609,-0.1772393375121603,0.4514868111566952,0.12335368872251723,0.12377043768846885,0.4515178097680436,1.2147828379137142,0.0
1.081441922563418,0.45860704843651456,0.11520729672760946,1.17527678527221,0.26070812348103467,-0.16788670094240749,0.4676318284876424,0.12321653416773831,0.12353034551819239,0.44970262578318554,1.2185578833254664,0.0
1.101468624833111,0.46026431244542154,0.08286320044534928,1.1801638302522695,0.24435224900297892,-0.1582940072535127,0.47963468444473645,0.12339233880020577,0.12360968183035892,0.44785588011970645,1.2223175895924638,0.0
1.1214953271028039,0.46130844448915836,0.052206602186842074,1.1847337967817761,0.22849832647533697,-0.14853880208596226,0.4877602583775237,0.12382658474582066,0.12395361334648645,0.4459777023885754,1.2260616928455754,0.0
1.1415220293724968,0.4617729005910758,0.023222805095872136,1.1890041743005948,0.2135188759409271,-0.13869358959825115,0.49226062438555757,0.12446570781663743,0.12450832663320015,0.44406822440677224,1.229789930310744,0.0
1.1615487316421895,0.4616910318441869,-0.004093437344443406,1.192998289581746,0.19970576405756024,-0.12882603700774725,0.4933776295251946,0.12525865233899258,0.12522259193453184,0.44212758018803616,1.2335020403274277,0.0
1.1815754339118825,0.46109622132543365,-0.029740525937664054,1.1967437711115623,0.18727407649082162,-0.11899912012193699,0.4913458442905136,0.1261579385327505,0.12604881791933276,0.4401559059334601,1.2371977623669645,0.0
1.2016021361815754,0.46002196205415763,-0.05371296356380206,1.2002711224339453,0.17636756611914606,-0.10927121977692403,0.48639501725064715,0.12712042538030766,0.12694380592938573,0.4381533400219318,1.2408768370508576,0.0
1.2216288384512684,0.4585018744777798,-0.07600437881889288,1.203612427587169,0.16706525766118424,-0.09969617590897979,0.4787521933972114,0.1281077794702374,0.12786920422151873,0.43612002300042185,1.244539006168978,0.0
1.2416555407209613,0.45656966635722507,-0.0966104060277361,1.2068002030901754,0.15938877515033129,-0.09032331078435009,0.46864325623148534,0.1290867291279173,0.12879174762656134,0.4340560975741196,1.2481840126976884,0.0
1.2616822429906542,0.45425904129244754,-0.11553125323887709,1.2098664044433531,0.15331006765888752,-0.08119743281103954,0.45629389866552805,0.1300291501658606,0.12968332932196092,0.43196170859641764,1.2518116008178803,0.0
1.2817089452603472,0.45160356465112256,-0.13277383206624957,1.2128415899963085,0.14875927764777278,-0.07235883196080903,0.4419300425115252,0.13091202201213492,0.13052094379094686,0.42983700305874556,1.2554215159329298,0.0
1.3017356475300401,0.44863649720209237,-0.14835337245150884,1.2157542411440476,0.14563255738695055,-0.0638432771821129,0.425777738934807,0.1317172807671804,0.13128652778799862,0.4276821300802533,1.2590135046865651,0.0
1.321762349799733,0.4453906072922472,-0.1622944954922581,1.2186302346721691,0.14379967640607932,-0.05568202532300648,0.4080625929553201,0.13243158657682824,0.13196671720441558,0.4254972408973459,1.262587314980648,0.0
1.341789052069426,0.4418979721260055,-0.1746317583120842,1.2214924603295143,0.14311128286726046,-0.047901849819215345,0.38900877518955734,0.13304601804886482,0.13255253314717333,0.4232824888530689,1.266142695992867,0.0
1.361815754339119,0.4381897778620424,-0.1854097131981556,1.2243605742545745,0.14340569625300348,-0.04052509567380248,0.36883770727064225,0.13355570506123232,0.13303900899308213,0.42103802938634616,1.2696793981943417,0.0
1.3818424566088119,0.43429612703512765,-0.19468254134573687,1.2272508767574368,0.14451512514311787,-0.03356976519944849,0.3477665237176999,0.1339594115532621,0.13342477013934265,0.4187640200210709,1.2731971733671346,0.0
1.4018691588785048,0.4302458603829045,-0.20251333261115634,1.2301763012327958,0.1462712237679495,-0.02704963683970566,0.32600641798714164,0.13425908055929298,0.1337115785800833,0.4164606203550497,1.276695774621672,0.0
1.4218958611481975,0.4260663986143512,-0.20897308842766624,1.2331464997024995,0.14850992348517958,-0.020974417338672047,0.3037609750516806,0.13445935438311712,0.13390385489540166,0.4141279920488021,1.2801749564140723,0.0
1.4419225634178905,0.421783608088513,-0.21413952629190855,1.2361680096833239,0.1510754990412242,-0.015349925733959718,0.28122458023561636,0.13456708311736468,0.13400819044014153,0.4117662988142137,1.283634474563378,0.0
1.4619492656875834,0.417421692858032,-0.21809576152404994,1.2392444867478871,0.1538238532281665,-0.010178306188225057,0.2585809772867332,0.134590834559323,0.13403286232272757,0.40937570640304727,1.287074086268695,0.0
1.4819759679572764,0.4130031141389372,-0.2209289359547406,1.2423769872737533,0.15662502629331554,-0.005458265583917463,0.23600203021537972,0.13454041812459583,0.133987363314052,0.4069563825953091,1.2904935501262298,0.0
1.5020026702269693,0.4085485370479355,-0.2227288545500872,1.2455642864260656,0.15936495761561034,-0.0011853310832101386,0.2136467250353662,0.13442643421311154,0.13388195770698547,0.4045084971874737,1.2938926261462367,0.0
1.5220293724966623,0.40407680343636915,-0.22358668057831546,1.2488032173397403,0.1619465456837303,0.0026478775227266713,0.19166043029684043,0.1342598590364272,0.13372727275147264,0.4020322219805673,1.2972710757698567,0.0
1.5420560747663552,0.39960492886416293,-0.2235937286103107,1.2520890186982747,0.16429006792672338,0.006051365924584405,0.17017442009288675,0.13405167307159302,0.1335339335075144,0.3995277307681099,1.3006286618858631,0.0
1.5620827770360481,0.3951481211995897,-0.22284038322866112,1.2554156793782087,0.16633303399670069,0.009037478934137451,0.1493056504776524,0.13381253918137836,0.13331224690129245,0.3969951993239177,1.3039651488473027,0.0
1.582109479305741,0.39071981798984423,-0.22141516048727222,1.2587762704667709,0.16802955442810888,0.011620614338854663,0.12915677023586042,0.13355253420563942,0.1330719386049473,0.39443480538976705,1.3072803024880322,0.0
1.602136181575434,0.38633173960063666,-0.21940391946037988,1.262163256690941,0.16934931120851576,0.013816941133931773,0.10981633975385559,0.13328093560444967,0.13282194420411267,0.39184672866291986,1.3105738901391553,0.0
1.622162883845127,0.3819939551401886,-0.21688922302240277,1.2655687810483958,0.1702762178727341,0.015644125678933363,0.09135922725007914,0.1330060626099109,0.13257025405537717,0.3892311507835117,1.3138456806453502,0.0
1.64218958611482,0.37771495832984064,-0.21394984051739588,1.2689849181397868,0.17080685456955064,0.01712106867056971,0.0738471495818177,0.13273516950345937,0.13232380944896613,0.38658825532180363,1.3170954443810947,0.0
1.6622162883845129,0.37350175072459885,-0.21066038026209066,1.2724038933135033,0.17094875868582893,0.018267655168752263,0.057329324909127274,0.13247438707331266,0.1320884461724959,0.3839182277652987,1.3203229532667808,0.0
1.6822429906542056,0.36935992998853984,-0.20709103680294927,1.2758182662043747,0.17071864454356522,0.019104519293633146,0.04184320624404411,0.13222870711686655,0.13186888041351802,0.38122125550572394,1.3235279807847222,0.0
1.7022696929238985,0.3652937812617553,-0.20330743633922518,1.2792210785447293,0.1701406170177349,0.01965282465168893,0.027415267902789323,0.13200200408806048,0.13166873119439568,0.37849752782587825,1.3267103019950528,0.0
1.7222963951935915,0.36130636999201016,-0.19937056348725793,1.2826059672309855,0.16924443431280772,0.019934061065063756,0.014061820668741301,0.1317970875027214,0.13149057305638187,0.37574723588634806,1.329869693551513,0.0
1.7423230974632844,0.35739963492556237,-0.19533675332238856,1.2859672445309707,0.16806386499926254,0.01996985777818196,0.001789835655910059,0.1316157786646032,0.13133601266147232,0.3729705727120911,1.3330059337171258,0.0
1.7623497997329773,0.3535744802433649,-0.1912577341098731,1.289299948018641,0.16663517438351638,0.019781813000312867,-0.009402238893454784,0.13145900541700595,0.13120578311733935,0.37016773317888907,1.336118802379758,0.0
1.7823765020026703,0.3498308660821231,-0.18718070806209106,1.2925998633311933,0.16499576562761786,0.019391342236544536,-0.01952353818841627,0.1313269097790049,0.1310998494068505,0.3673389139996707,1.339208081067569,0.0
1.8024032042723632,0.3461678968900594,-0.1831484596031855,1.2958635231723812,0.1631829920594011,0.018819541664200946,-0.028590028617179443,0.13121896182133952,0.13101752149265306,0.3644843137107058,1.3422735529643444,0.0
