time,x,x_dot,z,z_dot,theta,theta_dot,u1,u2,x_ref,z_ref,theta_ref
0.0,0.9083022059240091,0.05358641812711987,0.6259707467882021,0.06539761718614898,0.13962882937247825,-0.030043432667085312,0.2966828819124838,0.2961625437571798,0.5,1.0,0.0
0.020026702269692925,0.9105953688233887,0.11465814496897458,0.6320549819224635,0.304211756713068,0.1386121853315305,-0.05083220204738759,0.29668288664223064,0.25063885523479074,0.4999824541392403,1.0041887412073853,0.0
0.04005340453938585,0.9140146017191222,0.17096164478667447,0.6422423236372486,0.5093670857392587,0.10076118985824883,-1.8925497736640837,0.06131141235437618,0.056323374905949936,0.4999298177883902,1.0083771884344908,0.0
0.06008010680907877,0.9176704213932542,0.18279098370659885,0.6502231591009581,0.3990417731854692,0.059010211851122006,-2.087548900356341,0.06586803771828528,0.05632337709707306,0.49984209464164997,1.0125650477216688,0.0
0.0801068090787717,0.9215041264989645,0.19168525528551725,0.6560758689866906,0.2926354942866231,0.009733286014818638,-2.4638462918151682,0.06113183648251794,0.05632337504529038,0.49971929085573213,1.0167520251505358,0.0
0.10013351134846463,0.9254363144765442,0.1966093988789825,0.6597393071984898,0.18317191058996535,-0.04324918896416613,-2.649123748949238,0.11204055970549168,0.11213121451873231,0.4995614150494292,1.0209378268645999,0.0
0.12016021361815754,0.9293968357455115,0.19802606344836648,0.6627999331356771,0.15303129685936148,-0.09600457017842379,-2.637769060712883,0.1751450230432039,0.17850915464979145,0.49936847830300873,1.0251221590898847,0.0
0.14018691588785048,0.9331268698956081,0.1865017075048344,0.6671719196562285,0.21859932602756688,-0.14591886085404357,-2.4957145337809905,0.24297200255797852,0.2498487068786458,0.499140494157436,1.0293047281555483,0.0
0.1602136181575434,0.9361532048751634,0.15131674897776415,0.674886830516126,0.3857455429948754,-0.1901990509130528,-2.2140095029504616,0.287104671975658,0.29668288536429066,0.4988774786134233,1.0334852405144925,0.0
0.1802403204272363,0.9379185802207076,0.08826876727720842,0.687229804376913,0.6171486930393484,-0.22671032761120385,-1.8255638349075474,0.2857015865701013,0.29668288659111774,0.49857945013030697,1.0376634027639664,0.0
0.20026702269692925,0.938050517257775,0.006596851853369112,0.7041090755051809,0.8439635564133937,-0.25435988724077924,-1.3824779814787755,0.24323748050719746,0.2543712302486168,0.4982464296247522,1.0418389216661577,0.0
0.22029372496662217,0.936525235539812,-0.07626408589814536,0.7242267864697329,1.0058855482276003,-0.27305315198030583,-0.9346632369763247,0.20535137239972154,0.21489248836578909,0.4978784404692846,1.0460115041687736,0.0
0.24032042723631508,0.9334358233782492,-0.1544706080781445,0.7464176839243569,1.1095448727311987,-0.2840859253830862,-0.5516386701390186,0.17665058770260447,0.18465603337502196,0.4974755084906501,1.0501808574256075,0.0
0.260347129506008,0.9289081767692752,-0.2263823304487001,0.7698053256316916,1.1693820853667332,-0.28870103691783255,-0.23075557673731945,0.1549220066680135,0.16161429640379094,0.4970376619680023,1.0543466888170925,0.0
0.28037383177570097,0.9230741134212791,-0.29170316739980207,0.7937334380204087,1.1964056194358605,-0.2879578296208633,0.03716036484846447,0.1379768946156385,0.14349168837105086,0.4965649316309177,1.0585087059708387,0.0
0.30040053404539385,0.9160632626135369,-0.3505425403871106,0.817696166205883,1.1981364092737157,-0.28280340519812525,0.257721221136894,0.1255920348615619,0.1301193597424596,0.49605735065723894,1.0626666167821521,0.0
0.3204272363150868,0.9079891600947502,-0.4037051259393369,0.841328129046433,1.1815981420274984,-0.27403235524658215,0.4385524975771551,0.11558326850573762,0.11922657805741828,0.49551495467074635,1.066820129434536,0.0
0.34045393858477974,0.8989588652262237,-0.4515147434263228,0.8643380608370169,1.1504965895291972,-0.26235686385924273,0.5837745693669741,0.10857136648008894,0.11148395865364387,0.4949377817386579,1.0709689524201722,0.0
0.3604806408544726,0.8890624952410219,-0.49481849926008986,0.8865252710860543,1.1093605124518693,-0.24836625062244633,0.6995306618398232,0.10278033227908702,0.10501361855959544,0.49432587236895703,1.0751127945603784,0.0
0.38050734312416556,0.8783852457669228,-0.5338624737049527,0.907726260050854,1.060049448239987,-0.2326082051938387,0.7879022714303789,0.09876114983305999,0.10037962771671408,0.49367926950755014,1.0792513650260465,0.0
0.4005340453938585,0.8670014478562964,-0.5691898955313164,0.9278298643647995,1.005180215697275,-0.21557807728822856,0.8515063952805102,0.09557883349383897,0.0967544430602589,0.49299801853525244,1.083384373358051,0.0
0.4205607476635514,0.8549804480778541,-0.6010499889221153,0.9467514513691521,0.9460793502176291,-0.19763282322079256,0.8972627033717975,0.09323712985687703,0.09412584863033989,0.49228216726460267,1.087511529487638,0.0
0.44058744993324434,0.8423860779702379,-0.6297185053808089,0.9644324316599717,0.8840490145409812,-0.17900394609830586,0.9314438561243379,0.09189093451738421,0.0925357712008859,0.4915317659365077,1.09163254375678,0.0
0.4606141522029373,0.8292762458012578,-0.6554916084490026,0.9808429763335519,0.8205272336790059,-0.1598880736423731,0.9557936227966374,0.09056353906279722,0.0909742683875993,0.49074686721671645,1.0957471269385064,0.0
0.48064085447263016,0.8157090608121752,-0.6783592494541312,0.9959530807135804,0.7555052190014245,-0.14047358712017885,0.9707243261097109,0.09064180188275002,0.09085532483199077,0.48992752619212343,1.0998549902572035,0.0
0.5006675567423231,0.8017356649883812,-0.6986697911896977,1.0097733736136971,0.6910146450058334,-0.1209189229102146,0.9777332104982117,0.08981814135355619,0.08983248818214488,0.48907380036690284,1.1039558454088796,0.0
0.520694259012016,0.7874117920816739,-0.716193645335366,1.0222870202374676,0.625682331188522,-0.10138372255808467,0.9767600176064966,0.09054357165347493,0.09040325883896229,0.48818574965847245,1.108049404581401,0.0
0.540720961281709,0.7727869186695465,-0.731243670606366,1.033522255428705,0.5617617595618583,-0.08199164416125108,0.9696039198416784,0.09064480154837848,0.09034629702598317,0.48726343639328856,1.1121353804746905,0.0
0.5607476635514019,0.75791315404858,-0.743688231048326,1.043487795369879,0.4982769970587027,-0.06286888025258411,0.9561381954333484,0.09138425865880997,0.09095820892993488,0.48630692530247177,1.116213486320892,0.0
0.5807743658210948,0.7428406985522024,-0.7536227748188774,1.052210520917097,0.43613627736091176,-0.044116819224191674,0.9376030514196214,0.09279859120148308,0.09224419955141337,0.4853162835172637,1.1202834359044958,0.0
0.6008010680907877,0.7276185665463485,-0.7611066002926924,1.0597361510332035,0.3762815058053161,-0.025837260779559515,0.9139779222316079,0.0964142515589104,0.09573625807449632,0.48429158056431554,1.1243449435824273,0.0
0.6208277703604806,0.7122934061420394,-0.7662580202154542,1.0661745534231677,0.32192011949821203,-0.008127995842879989,0.8854632468339764,0.10143485464002895,0.10062391664985858,0.4832328883608088,1.128397724304094,0.0
0.6408544726301736,0.6969133613900319,-0.7690022376003753,1.071675988320458,0.27507174486452407,0.008905908294989592,0.8516952068934789,0.1072675889888727,0.10632178158058878,0.48214028120940733,1.1324414936313905,0.0
0.6608811748998665,0.6815299505773067,-0.7691705406362599,1.076413610020375,0.2368810849958434,0.025158042997103933,0.8126067351057168,0.11339505893166198,0.11231817747665354,0.48101383579304297,1.1364759677586627,0.0
0.6809078771695595,0.6661985312710013,-0.7665709653152708,1.0805681584636664,0.20772742216457246,0.04052521932566757,0.7683588164281828,0.11941749115915017,0.11821881939105128,0.47985363116953333,1.1405008635326255,0.0
0.7009345794392524,0.6509776787890658,-0.7610426240967754,1.0843161674465263,0.1874004491429974,0.054911831719201644,0.7193306196767041,0.1250323748275045,0.12372570563368465,0.4786597487660336,1.144515898472236,0.0
0.7209612817089452,0.6359278536933433,-0.752491254786126,1.087821107076654,0.1752469815063811,0.06823342866063695,0.6660798470717637,0.1300238234124189,0.12862646637406347,0.4774322723733215,1.1485207907885173,0.0
0.7409879839786382,0.6211096793063927,-0.7409087193475277,1.0912271568233876,0.17030248733667902,0.08041948328771793,0.6093027313540493,0.13425123605589426,0.13278295278835406,0.4761712881399164,1.1525152594043386,0.0
0.7610146862483311,0.606582097893146,-0.7263790706623389,1.094655266538279,0.171405485744568,0.09141530967522488,0.5497913193753484,0.1376391133389726,0.13612106059839582,0.47487688456603344,1.156499023974139,0.0
0.7810413885180241,0.5924006187817137,-0.7090739555716125,1.098201185594498,0.17729595281094634,0.10118313429881612,0.4883912311795619,0.14016711387420272,0.1386208448156775,0.47354915249737217,1.1604718049036047,0.0
0.801068090787717,0.5786158142175358,-0.6892402282088907,1.1019351410223799,0.18669777139409954,0.10970237201182235,0.42596188565031073,0.14186025784855136,0.14030683126583116,0.4721881851187405,1.1644333233692916,0.0
0.82109479305741,0.5652721619988734,-0.6671826109331185,1.1059028488669829,0.19838539223015436,0.11696919506944994,0.3633411528813797,0.14277925378697326,0.14123848823589685,0.4707940779475151,1.1683833013381941,0.0
0.8411214953271028,0.5524072811288024,-0.6432440435035477,1.1101275499560619,0.21123505445394664,0.12299551250421867,0.30131587173843505,0.14301109107149879,0.1415009870138149,0.46936692882693704,1.1723214615872586,0.0
0.8611481975967957,0.5400515611460254,-0.6177859991388525,1.1146127753258679,0.22426126849029498,0.12780749491557203,0.24059912056766825,0.14266011765060135,0.14119645649107332,0.4679068379192454,1.1762475277228392,0.0
0.8811748998664887,0.528228149958835,-0.5911705593595138,1.119345568372385,0.23663965232585357,0.13144378616299737,0.18181456237126772,0.141839857765268,0.14043597345387185,0.46641390769864727,1.1801612242000974,0.0
0.9012016021361816,0.5169532402601871,-0.5637454849324012,1.124299919978102,0.2477175802858518,0.13395353944902327,0.12548766430129454,0.1406658166580556,0.13933252420141048,0.46488824294412573,1.184062276342339,0.0
0.9212283044058746,0.5062365810392205,-0.5358329610483281,1.1294402081036554,0.2570144062776689,0.13539440237198055,0.07204314614786494,0.13924947279868824,0.13799512952098428,0.4633299507320861,1.1879504103602934,0.0
0.9412550066755675,0.4960821372631036,-0.5077221888058472,1.1347244726577776,0.2642132277061104,0.13583055598067495,0.0218076804347204,0.13769358442606294,0.1365242543332743,0.4617391404288412,1.1918253533713281,0.0
0.9612817089452603,0.4864888255553886,-0.47966558538574966,1.1401073975394536,0.2691462440837986,0.13533088907203733,-0.02498334543188132,0.13608884707530364,0.1350085365556415,0.4601159236829352,1.1956868334186013,0.0
0.9813084112149533,0.47745126422489165,-0.45187806652484647,1.1455429121299954,0.2717757295270894,0.13396738357575563,-0.06817527481408336,0.1345118507498608,0.13352277379055796,0.4584604144173082,1.1995345794901475,0.0
1.0013351134846462,0.46896048977993976,-0.42453872224759337,1.1509863618658163,0.27217248679104733,0.13181378241782793,-0.10768005789638466,0.13302420418995956,0.13212702651680044,0.45677272882130043,1.2033683215379,0.0
1.0213618157543392,0.46100460689327954,-0.3977941443330097,1.1563962299268649,0.2704934030524349,0.12894434918661715,-0.14347166156053884,0.13167259722007985,0.13086674406646248,0.45505298534249783,1.2071877904966422,0.0
1.041388518024032,0.4535693530661765,-0.37176269135515244,1.16173541924951,0.2669594661322564,0.12543286097896392,-0.17557441038266164,0.13048962015328175,0.1297735589267415,0.45330130467841884,1.2109927183028915,0.0
1.061415220293725,0.44663857053157063,-0.346539126730293,1.166972123379636,0.2618352065063006,0.12135182973431585,-0.20405156223240514,0.12949512179385259,0.12886660140326578,0.4515178097680436,1.2147828379137142,0.0
1.081441922563418,0.44019458733887346,-0.3221991596348578,1.1720803286636483,0.2554102642006129,0.11677191738189778,-0.22899561762090215,0.12869789094640474,0.12815413623446095,0.44970262578318554,1.2185578833254664,0.0
1.101468624833111,0.43421851620822327,-0.29880355653250856,1.1770399984583892,0.24798348973704584,0.11176150877581621,-0.25052043030408006,0.12809748377232746,0.1276353470393222,0.44785588011970645,1.2223175895924638,0.0
1.1214953271028039,0.42869048374192503,-0.2764016233149132,1.1818369933958903,0.2398497468750584,0.10638640791849771,-0.2687550428659264,0.12768605986789783,0.12730213398609477,0.4459777023885754,1.2260616928455754,0.0
1.1415220293724968,0.423589804367153,-0.25503396873860107,1.1864627814255853,0.23128940148474497,0.10070962654156894,-0.2838390688464363,0.12745013307026393,0.12714083208064533,0.44406822440677224,1.229789930310744,0.0
1.1615487316421895,0.41889511347942204,-0.23473454438654606,1.1909139885727724,0.22256035735935556,0.09479123881877242,-0.2959193861398265,0.1273721509730933,0.1271337656868421,0.44212758018803616,1.2335020403274277,0.0
1.1815754339118825,0.4145844730830415,-0.2155320198190262,1.1951918362644842,0.21389238458559107,0.08868828200953416,-0.30514784046191346,0.12743191941138876,0.12726065026065442,0.4401559059334601,1.2371977623669645,0.0
1.2016021361815754,0.4106354614595477,-0.19745058117468955,1.1993015065230126,0.20548351292642017,0.08245468463992002,-0.3116798684807069,0.12760780624236429,0.127499787700812,0.4381533400219318,1.2408768370508576,0.0
1.2216288384512684,0.407025256092229,-0.18051026836593473,1.203251470093333,0.19749817851602497,0.07614121530319715,-0.31567346683614284,0.1278777388453409,0.12782905134888678,0.43612002300042185,1.244539006168978,0.0
1.2416555407209613,0.40373071668534216,-0.16472697034434308,1.2070528065169546,0.19006682118108223,0.06979544191670331,-0.31728866932469235,0.1282200242593586,0.12822670275551054,0.4340560975741196,1.2481840126976884,0.0
1.2616822429906542,0.4007284729073632,-0.15011218889894784,1.210718540150611,0.1832866816828216,0.0634616985917119,-0.31668716624957033,0.1286139927843249,0.12867203381436743,0.43196170859641764,1.2518116008178803,0.0
1.2817089452603472,0.397995019434536,-0.13667267364135832,1.2142630110063872,0.17722354278880154,0.05718105880609212,-0.31403198928098836,0.12904048612480912,0.12914585564145212,0.42983700305874556,1.2554215159329298,0.0
1.3017356475300401,0.3955068191340034,-0.12441001502663226,1.217701294758338,0.17191418759754643,0.050991315340337046,-0.30948717328775366,0.1294822092011253,0.12963085249424658,0.4276821300802533,1.2590135046865651,0.0
1.321762349799733,0.3932404138281196,-0.11332026529418959,1.2210486822450441,0.1673693743353073,0.044926968542697086,-0.3032173398819979,0.12992396366182188,0.13011181809780517,0.4254972408973459,1.262587314980648,0.0
1.341789052069426,0.39117254102892063,-0.10339363995994894,1.2243202252732557,0.16357715141057985,0.03901922505979576,-0.2953871741450665,0.13035277985917598,0.1305757906017751,0.4232824888530689,1.266142695992867,0.0
1.361815754339119,0.3892802543096799,-0.09461433596203683,1.2275303524677572,0.1605063597250772,0.033296009309596836,-0.28616078750994706,0.1307579626311866,0.13101210110516662,0.42103802938634616,1.2696793981943417,0.0
1.3818424566088119,0.38754104456003396,-0.08696048748229696,1.2306925562869893,0.15811019096160395,0.027781989789258017,-0.2757009760169408,0.13113106480309258,0.1314123493765582,0.4187640200210709,1.2731971733671346,0.0
1.4018691588785048,0.3859329592138502,-0.08040426730918908,1.2338191501025493,0.156329690777997,0.022498621898724955,-0.2641683945266534,0.13146580108313952,0.13177031926620217,0.4164606203550497,1.276695774621672,0.0
1.4218958611481975,0.3844347166010676,-0.0749121306391291,1.2369210923976615,0.15509711475560495,0.01746420840776821,-0.251720674547837,0.13175791400889608,0.13208184537837925,0.4141279920488021,1.2801749564140723,0.0
1.4419225634178905,0.3830258128102045,-0.07044518954315643,1.2400078736537656,0.15433906280520499,0.012693978071795394,-0.23851151679864074,0.13200500245945512,0.13234464150655864,0.4117662988142137,1.283634474563378,0.0
1.4619492656875834,0.38168661881115595,-0.06695969995242652,1.2430874603381032,0.15397933421687787,0.008200182270164837,-0.22468979008152806,0.13220632273083485,0.13255810087136238,0.40937570640304727,1.287074086268695,0.0
1.4819759679572764,0.38039846603501026,-0.06440763880728477,1.246166289566864,0.15394146143803827,0.003992208943980929,-0.2103986663091955,0.13236257116268965,0.1327230772343306,0.4069563825953091,1.2904935501262298,0.0
1.5020026702269693,0.3791437190987127,-0.0627373468148779,1.2492493074692494,0.15415089511927568,7.671258186589834e-05,-0.19577481810575148,0.13247565662931982,0.13284165531293318,0.4045084971874737,1.2938926261462367,0.0
1.5220293724966623,0.37790583486249973,-0.06189421181064817,1.2523400439965287,0.15453682636396504,-0.0035422414363458173,-0.18094770091058576,0.13254847042323797,0.13291691815275522,0.4020322219805673,1.2972710757698567,0.0
1.5420560747663552,0.37666940748772376,-0.06182136873879851,1.255440716880692,0.15503364420816598,-0.006863020164874692,-0.1660389364264438,0.1325846602206278,0.13295271827947663,0.3995277307681099,1.3006286618858631,0.0
1.5620827770360481,0.3754201995989386,-0.062460394439260235,1.2585523576208606,0.1555820370084231,-0.009886256344069444,-0.15116180895973752,0.13258841392866944,0.1329534585614259,0.3969951993239177,1.3039651488473027,0.0
1.582109479305741,0.3741451600304393,-0.0637519784249635,1.2616749527313906,0.15612975552649816,-0.012614673964493946,-0.1364208810212252,0.13256425827188512,0.132923887761599,0.39443480538976705,1.3072803024880322,0.0
1.602136181575434,0.3728324289437929,-0.06563655433231767,1.2648075939911994,0.15663206299044144,-0.015052908559467849,-0.12191172974869527,0.13251687597476136,0.13286891474427284,0.39184672866291986,1.3105738901391553,0.0
1.622162883845127,0.3714713313351046,-0.06805488043441536,1.2679486320554423,0.1570519032121447,-0.017207324588834033,-0.10772080146830938,0.13245094440848726,0.13279344429443257,0.3892311507835117,1.3138456806453502,0.0
1.64218958611482,0.3700523601097797,-0.07094856126624466,1.2710958284953695,0.15735982199636292,-0.019085832152212243,-0.0939253781689104,0.1323709975594857,0.13270223647861001,0.38658825532180363,1.3170954443810947,0.0
1.6622162883845129,0.3685671499933863,-0.07426050581967036,1.2742465020871743,0.15753367959024114,-0.02069770509019943,-0.08059364689935962,0.13228131224080217,0.13259979051904713,0.3839182277652987,1.3203229532667808,0.0
1.6822429906542056,0.36700844357790785,-0.07793532077392243,1.277397665946045,0.15755819294353748,-0.0220534023128763,-0.06778486113384372,0.13218581858250736,0.13249025324876312,0.38122125550572394,1.3235279807847222,0.0
1.7022696929238985,0.36537005078312057,-0.08191963973936384,1.2805461528699031,0.1574243461929025,-0.02316439395200787,-0.05554958195657814,0.13208803407311057,0.13237735143316892,0.37849752782587825,1.3267103019950528,0.0
1.7222963951935915,0.3636468029538438,-0.08616239146383965,1.283688726995154,0.15712870626254713,-0.024042993680547516,-0.043929986426982905,0.13199101976970823,0.13226434657430589,0.37574723588634806,1.329869693551513,0.0
1.7423230974632844,0.3618345027262425,-0.09061501138006259,1.2868221805547697,0.1566726779807893,-0.024702198292539754,-0.03296023059961204,0.13189735677803457,0.13215401028496496,0.3729705727120911,1.3330059337171258,0.0
1.7623497997329773,0.3599298706903975,-0.09523160179225151,1.2899434151522626,0.15606172987465075,-0.025155535397892993,-0.022666855267661556,0.1318091407264304,0.1320486179335495,0.37016773317888907,1.336118802379758,0.0
1.7823765020026703,0.35793048976102176,-0.09996904646878607,1.2930495075131825,0.1553046180459925,-0.025416919866980157,-0.013069223454358042,0.1317279917117182,0.1319499580084491,0.3673389139996707,1.339208081067569,0.0
1.8024032042723632,0.35583474805104376,-0.10478708549889997,1.2961377601423312,0.15441263145743092,-0.02550051946430451,-0.004179979866217851,0.13165507707829316,0.1318593545307858,0.3644843137107058,1.3422735529643444,0.0
