time,x,x_dot,z,z_dot,theta,theta_dot,u1,u2,x_ref,z_ref,theta_ref
0.0,0.5748453837732472,0.06673386691671651,1.047904460184225,0.09468981922802258,-0.10526657683505607,0.029384668650043466,0.06093934503580082,0.06151860548989814,0.5,1.0,0.0
0.020026702269692925,0.5759882484156847,0.05714323212187718,1.0476807155861692,-0.011187229902784937,-0.10421595906880497,0.05253088831255687,0.09715669968113738,0.09800140407624258,0.4999824541392403,1.0041887412073853,0.0
0.04005340453938585,0.5768263572963062,0.041905444031070715,1.046412387418155,-0.06341640840070882,-0.10249046280552353,0.08627481316407083,0.1139788505742203,0.11487671212817457,0.4999298177883902,1.0083771884344908,0.0
0.06008010680907877,0.5773110446908257,0.024234369725981104,1.044597208680901,-0.09075893686269583,-0.10004817785884443,0.12211424733395453,0.1250495142806303,0.12591655795049533,0.49984209464164997,1.0125650477216688,0.0
0.0801068090787717,0.5774149135214541,0.005193441531419207,1.0425621239038636,-0.10175423885187451,-0.09691445246309258,0.15668626978759406,0.13276344578902818,0.13357493879774002,0.49971929085573213,1.0167520251505358,0.0
0.10013351134846463,0.5771245835552561,-0.01451649830989982,1.0405348556020206,-0.10136341509214938,-0.09313443563763539,0.18900084127285804,0.13797989844775932,0.13871368944545456,0.4995614150494292,1.0209378268645999,0.0
0.12016021361815754,0.5764378629684792,-0.03433602933884593,1.0386693039945252,-0.09327758037477138,-0.0887709857624021,0.21817249376166423,0.1413340248300923,0.14197600310920994,0.49936847830300873,1.0251221590898847,0.0
0.14018691588785048,0.5753614087234292,-0.05382271225249866,1.0370643886825806,-0.08024576559723345,-0.08389821050069282,0.24363876308546412,0.14333430093799587,0.14387672884516187,0.499140494157436,1.0293047281555483,0.0
0.1602136181575434,0.5739086761333565,-0.07263662950363754,1.0357791053609586,-0.06426416608109164,-0.07859634604264165,0.265093222902559,0.14437606611180553,0.14481609686144348,0.4988774786134233,1.0334852405144925,0.0
0.1802403204272363,0.572098192500238,-0.0905241816559251,1.0348442086705993,-0.0467448345179685,-0.07294782781464895,0.2824259113996344,0.14476037867775737,0.1450987648505089,0.49857945013030697,1.0376634027639664,0.0
0.20026702269692925,0.5699521430184591,-0.10730247408894648,1.0342710889620907,-0.028655985425434433,-0.06703440001181026,0.29567139014193455,0.1447113934361489,0.1449514391642312,0.4982464296247522,1.0418389216661577,0.0
0.22029372496662217,0.5674952375123237,-0.12284527530677375,1.0340583671230499,-0.010636091952041099,-0.06093506847136429,0.3049665770222976,0.1443918131584063,0.14453856152906036,0.4978784404692846,1.0460115041687736,0.0
0.24032042723631508,0.5647538173412511,-0.13707100855362805,1.034196672703265,0.00691527901075065,-0.054724707957011974,0.3105180257176155,0.143916197551913,0.1439758238661487,0.4974755084906501,1.0501808574256075,0.0
0.260347129506008,0.5617551599589086,-0.14993286911712583,1.034672003614412,0.0237665455573431,-0.048473158342523685,0.31257748072441494,0.14336217399551535,0.14334154379277395,0.4970376619680023,1.0543466888170925,0.0
0.28037383177570097,0.5585269405284238,-0.1614109715242377,1.0354680004708128,0.03979984282003919,-0.04224467708217088,0.31142406301764014,0.1427796987864704,0.14268605174414328,0.4965649316309177,1.0585087059708387,0.0
0.30040053404539385,0.5550968143729337,-0.17150630777450515,1.0365674093956043,0.05497044623957317,-0.03609764654652261,0.30735152678241395,0.14219857074527764,0.14203929750527616,0.49605735065723894,1.0626666167821521,0.0
0.3204272363150868,0.5514920900015206,-0.1802362185706575,1.0379529548894217,0.06927727469087076,-0.03008446125922571,0.30065926436484464,0.1416344041832097,0.14141688985461742,0.49551495467074635,1.066820129434536,0.0
0.34045393858477974,0.5477394689585202,-0.18763105215001946,1.0396077986646293,0.08274218876037634,-0.024251541172806246,0.2916460043209734,0.14109325434320533,0.1408247688575721,0.4949377817386579,1.0709689524201722,0.0
0.3604806408544726,0.5438648349333296,-0.19373170125952857,1.041515720482441,0.09539609089059065,-0.01863943307523941,0.28060540487834207,0.14057520178656177,0.14026282173848728,0.49432587236895703,1.0751127945603784,0.0
0.38050734312416556,0.5398930798003523,-0.19858775664886807,1.0436611262377078,0.1072702877633397,-0.013282974597325487,0.267822923895696,0.1400769732060243,0.139727524991342,0.49367926950755014,1.0792513650260465,0.0
0.4005340453938585,0.5358479585662559,-0.20225606170481783,1.0460289600373183,0.11839168998051966,-0.008211503513226947,0.2535735542049269,0.13959383496217348,0.13921385216761276,0.49299801853525244,1.083384373358051,0.0
0.4205607476635514,0.5317519683332206,-0.20479951165176744,1.0486045755047018,0.12878077336917296,-0.003449100725061817,0.2381201394082567,0.13912089336752606,0.1387165838127531,0.49228216726460267,1.087511529487638,0.0
0.44058744993324434,0.5276262485494378,-0.20628598918913643,1.0513736039983976,0.13845142468478852,0.0009851409459142165,0.22171208354880168,0.13865392972048468,0.13823114945831003,0.4915317659365077,1.09163254375678,0.0
0.4606141522029373,0.523490501151092,-0.20678736991729363,1.0543218436919268,0.14741198467646088,0.005076827839103941,0.20458434465948616,0.13818987729771495,0.13775411012267316,0.49074686721671645,1.0957471269385064,0.0
0.48064085447263016,0.5193629298873502,-0.20637856318708778,1.0574351829152664,0.15566696116697298,0.008815960884992986,0.18695665229445232,0.13772702970212344,0.13728337149753245,0.48992752619212343,1.0998549902572035,0.0
0.5006675567423231,0.5152601983415702,-0.2051365772889978,1.0606995632798886,0.16321901823110685,0.01219661929734633,0.16903292061766714,0.137265054426462,0.1368182021092515,0.48907380036690284,1.1039558454088796,0.0
0.520694259012016,0.5111974060795632,-0.20313961310034997,1.064100982437543,0.170070957882716,0.015216636218021518,0.1510008460337594,0.13680487216327616,0.13635911716379873,0.48818574965847245,1.108049404581401,0.0
0.540720961281709,0.507188082104318,-0.20046619876226218,1.0676255324578832,0.17622750101701673,0.017877269931754883,0.1330316856866683,0.13634845090233375,0.13590767712892016,0.48726343639328856,1.1121353804746905,0.0
0.5607476635514019,0.5032441944814234,-0.19719438114472743,1.071259467404581,0.18169674733489175,0.02018287420905924,0.11528021386521801,0.135898553694008,0.13546623985475997,0.48630692530247177,1.116213486320892,0.0
0.5807743658210948,0.49937617469633133,-0.1934009892546051,1.0749892924355189,0.1864912515468993,0.02214057121838508,0.09788485046629183,0.13545847025824706,0.1350376962935257,0.4853162835172637,1.1202834359044958,0.0
0.6008010680907877,0.49559295506244927,-0.1891609816941022,1.0788018663857284,0.19062869751047962,0.023759930240320925,0.08096795109679225,0.1350317549000116,0.13462521216080353,0.48429158056431554,1.1243449435824273,0.0
0.6208277703604806,0.49190201734371175,-0.18454688593687518,1.0826845100780391,0.1941321846155394,0.02505265511719296,0.06463624384360189,0.13462201770094984,0.1342320222296774,0.4832328883608088,1.128397724304094,0.0
0.6408544726301736,0.4883094507162201,-0.17962833137458148,1.0866251142656378,0.1970302093799284,0.026032282852360346,0.04898138675836969,0.13423257412247977,0.13386108450735465,0.48214028120940733,1.1324414936313905,0.0
0.6608811748998665,0.4848200171002527,-0.17447168079837078,1.0906122370114864,0.1993561372924274,0.026713896949040954,0.03408070483402992,0.13386652933744586,0.13351516057422116,0.48101383579304297,1.1364759677586627,0.0
0.6809078771695595,0.4814372222693448,-0.16913974154539194,1.0946351931213207,0.2011478054917202,0.027113852225263992,0.019997763811151852,0.13352644971426758,0.13319649817655765,0.47985363116953333,1.1405008635326255,0.0
0.7009345794392524,0.4781633910003751,-0.16369156344848731,1.0986841262725258,0.20244665756025504,0.02724951992964862,0.006783385219231098,0.1332143375002094,0.13290679991018517,0.4786597487660336,1.144515898472236,0.0
0.7209612817089452,0.4749997448812008,-0.15818230595871377,1.1027500632400749,0.20329684837744905,0.027139048293887944,-0.005523581788033959,0.1329315837684391,0.1326471788100779,0.4774322723733215,1.1485207907885173,0.0
0.7409879839786382,0.47194648158450997,-0.1526631648345397,1.106824949113008,0.20374429364666133,0.02680114155829256,-0.016895336779768864,0.13267895275550254,0.13241814227658952,0.4761712881399164,1.1525152594043386,0.0
0.7610146862483311,0.4690028546188512,-0.1471813482829374,1.1109016632790394,0.2038357083015673,0.02625486134409947,-0.027314010709654418,0.13245659734428109,0.13221960463037177,0.47487688456603344,1.156499023974139,0.0
0.7810413885180241,0.46616725277143184,-0.1417800923709682,1.114974016830858,0.2036176775909322,0.025519435948112658,-0.03677126979934037,0.13226409474875306,0.13205092714026972,0.47354915249737217,1.1604718049036047,0.0
0.801068090787717,0.4634372786531859,-0.13649870591229799,1.1190367327376487,0.20313579533953519,0.024614086485779556,-0.04526747311665519,0.1321005018088318,0.13191097293893447,0.4721881851187405,1.1644333233692916,0.0
0.82109479305741,0.4608098258682832,-0.13137263924513576,1.1230854106172714,0.20243389398113878,0.023557871055527046,-0.052810771512625365,0.1319644239078661,0.1317981745007837,0.4707940779475151,1.1683833013381941,0.0
0.8411214953271028,0.45828115444993467,-0.1264335709174241,1.1271164783095753,0.20155338461519492,0.022369545769760888,-0.059416264288307964,0.13185409199400794,0.1317106093299644,0.46936692882693704,1.1723214615872586,0.0
0.8611481975967957,0.45584696430144,-0.12170950742473277,1.1311271326685512,0.20053271794879587,0.02106744157869112,-0.06510520955348842,0.1317674433832031,0.13164607953103885,0.4679068379192454,1.1762475277228392,0.0
0.8811748998664887,0.45350246644978504,-0.11722489258274776,1.1351152720798627,0.1994069705655768,0.01966935589053871,-0.06990428440762075,0.13170220267132984,0.13160219158924036,0.46641390769864727,1.1801612242000974,0.0
0.9012016021361816,0.4512424519632315,-0.11300072432767713,1.139079423190817,0.1982075555477149,0.01819245806917653,-0.07384489106810874,0.13165595967998567,0.13157643327801088,0.46488824294412573,1.184062276342339,0.0
0.9212283044058746,0.4490613584092618,-0.10905467769848345,1.143018664230192,0.19696205196875133,0.01665320796293625,-0.07696250531201382,0.13162624217399566,0.13156624542331324,0.4633299507320861,1.1879504103602934,0.0
0.9412550066755675,0.4469533337402206,-0.10540123345205886,1.1469325471199803,0.19569414448940692,0.015067286684700898,-0.07929606391176795,0.131610581587171,0.1315690867535048,0.4617391404288412,1.1918253533713281,0.0
0.9612817089452603,0.4449122974958062,-0.10205181222072057,1.1508210203550766,0.1944236617548131,0.013449538924122777,-0.08088738802890591,0.1316065705735832,0.13158249063875624,0.4601159236829352,1.1956868334186013,0.0
0.9813084112149533,0.4429319992085338,-0.09901491436361717,1.1546843543675311,0.19316670062272567,0.011813926123380903,-0.08178064003709362,0.131611911684067,0.1316041130063403,0.4584604144173082,1.1995345794901475,0.0
1.0013351134846462,0.4410060738940018,-0.09629626572660123,1.1585230708136067,0.19193582230378142,0.010173489888181318,-0.08202181175997919,0.13162445688697325,0.13163177113728963,0.45677272882130043,1.2033683215379,0.0
1.0213618157543392,0.4391280945050227,-0.09389896944895526,1.162337876937027,0.19074030617101567,0.008540325035559791,-0.08165824263107639,0.13164223799677233,0.13166347339526385,0.45505298534249783,1.2071877904966422,0.0
1.041388518024032,0.43729162122940746,-0.09182366378076161,1.1661296058807253,0.18958644718491635,0.0069255617000235584,-0.08073816677681157,0.1316634883596158,0.1316974402253838,0.45330130467841884,1.2109927183028915,0.0
1.061415220293725,0.43549024751661153,-0.09006868563979516,1.1698991635505982,0.18847788349363895,0.005339355930752833,-0.07931028846353633,0.1316866563662194,0.1317321169841301,0.4515178097680436,1.2147828379137142,0.0
1.081441922563418,0.43371764272909713,-0.08863023937571929,1.1736474823847858,0.1874159417093763,0.0037908882165927325,-0.07742338570800504,0.13171041152643315,0.13176617932775458,0.44970262578318554,1.2185578833254664,0.0
1.101468624833111,0.431967591330084,-0.08750256995065755,1.1773754821556857,0.1863999885449922,0.002288369374234806,-0.07512594211789632,0.1317336439587759,0.13179853200798475,0.44785588011970645,1.2223175895924638,0.0
1.1214953271028039,0.43023402853985815,-0.08667813951129257,1.1810840377327148,0.18542777885145886,0.0008390532302082522,-0.0724658072013277,0.13175546387448822,0.13182830799777162,0.4459777023885754,1.2260616928455754,0.0
1.1415220293724968,0.4285110724175568,-0.08614780611506775,1.1847739537364679,0.1844958001876576,-0.0005507442028168469,-0.06948987165125496,0.13177516550251198,0.1318548303572792,0.44406822440677224,1.229789930310744,0.0
1.1615487316421895,0.4267930523502495,-0.08590100336536569,1.1884459449353875,0.18359955994598331,-0.0018756207141823456,-0.06624382556827493,0.13179225472894127,0.13187764079670974,0.44212758018803616,1.2335020403274277,0.0
1.1815754339118825,0.4250745339664745,-0.08592591918875059,1.1921006231698161,0.18273391172143114,-0.0031310583181895697,-0.06277188020036122,0.13180639992538168,0.1318964495888754,0.4401559059334601,1.2371977623669645,0.0
1.2016021361815754,0.4233503405112456,-0.08620967276144376,1.1957384892859189,0.1818933058051339,-0.00431338885317117,-0.05911652674907991,0.13181742167929278,0.1319111236439818,0.4381533400219318,1.2408768370508576,0.0
1.2216288384512684,0.42161557075447686,-0.08673848783843514,1.199359929707843,0.18107202109620543,-0.005419756088170792,-0.055318361749981095,0.131825271916013,0.1319216654065272,0.43612002300042185,1.244539006168978,0.0
1.2416555407209613,0.4198656135327557,-0.08749786108605875,1.2029652169870448,0.1802643639600881,-0.006448074522249718,-0.05141592170394626,0.1318300131658872,0.13192819141243728,0.4340560975741196,1.2481840126976884,0.0
1.2616822429906542,0.4180961590481523,-0.08847272423017187,1.2065545136693807,0.17946483411679803,-0.007396985448335523,-0.0474455463042903,0.13183179782756219,0.13193091086537634,0.43196170859641764,1.2518116008178803,0.0
1.2817089452603472,0.41630320707025226,-0.08964759889500162,1.210127878825696,0.17866825781575643,-0.008265810833866865,-0.04344126927656702,0.1318308481973679,0.13193010500214614,0.42983700305874556,1.2554215159329298,0.0
1.3017356475300401,0.4144830722068347,-0.09100674317087751,1.2136852766197652,0.1778698897034623,-0.009054505550951242,-0.03943473585421902,0.1318274377019364,0.13192610769137036,0.4276821300802533,1.2590135046865651,0.0
1.321762349799733,0.412632386424358,-0.09253428912383602,1.2172265863286234,0.17706548544290168,-0.009763608463705772,-0.03545514563772628,0.13182187367713652,0.13191928761298552,0.4254972408973459,1.262587314980648,0.0
1.341789052069426,0.41074809901157794,-0.09421437063900373,1.2207516132815703,0.17625134764735295,-0.010394192851979315,-0.03152921941367726,0.13181448194198833,0.13191003227078418,0.4232824888530689,1.266142695992867,0.0
1.361815754339119,0.4088274741882695,-0.09603124116542433,1.224260100242535,0.175424348048238,-0.01094781661944812,-0.027681188373440233,0.13180559334184236,0.13189873401605234,0.42103802938634616,1.2696793981943417,0.0
1.3818424566088119,0.406868086566327,-0.0979693810971232,1.227751738823709,0.17458192905869405,-0.011426472699993103,-0.023932804027249167,0.1317955323140813,0.13188577813602803,0.4187640200210709,1.2731971733671346,0.0
1.4018691588785048,0.404867814672755,-0.1000135946785992,1.2312261805827338,0.17372208795124083,-0.01183254004192981,-0.020303367096835473,0.13178460751505935,0.13187153304853164,0.4164606203550497,1.276695774621672,0.0
1.4218958611481975,0.4028248327435374,-0.1021490964608807,1.234683047520782,0.17284334690240646,-0.01216873551332841,-0.01680977356992996,0.13177310447637244,0.13185634257119547,0.4141279920488021,1.2801749564140723,0.0
1.4419225634178905,0.4007376009944464,-0.104361587454553,1.2381219417624643,0.17194471208411785,-0.012438067035165059,-0.013466576091832386,0.13176128014845517,0.13184052012277617,0.4117662988142137,1.283634474563378,0.0
1.4619492656875834,0.39860485456990863,-0.10663732122688874,1.2415424542573577,0.17102562474467145,-0.012643788213052823,-0.010286058894388155,0.131749359177625,0.1318243447022824,0.40937570640304727,1.287074086268695,0.0
1.4819759679572764,0.39642559136444705,-0.10896316027307877,1.2449441723967247,0.17008590696834816,-0.01278935470269733,-0.007278324482225315,0.13173753183895845,0.13180805856664654,0.4069563825953091,1.2904935501262298,0.0
1.5020026702269693,0.39419905890326107,-0.11132662305930009,1.2483266864899725,0.16912570466238502,-0.01287838251001588,-0.004451390365927566,0.1317259533552503,0.13179186633572879,0.4045084971874737,1.2938926261462367,0.0
1.5220293724966623,0.3919247404595732,-0.11371592218439398,1.2516895950879106,0.16814542989690603,-0.01291460839387838,-0.001811294193125024,0.13171474442302003,0.13177593534376952,0.4020322219805673,1.2972710757698567,0.0
1.5420560747663552,0.38960234057669546,-0.11611999414388847,1.2550325091766459,0.1671457044367624,-0.01290185250797436,0.0006377942952009333,0.13170399274036873,0.13176039702981365,0.3995277307681099,1.3006286618858631,0.0
1.5620827770360481,0.3872317701525991,-0.11852852120481987,1.2583550552962648,0.1661273059809456,-0.012843983401735027,0.002893455311966615,0.13169375532923064,0.13174534916454925,0.3969951993239177,1.3039651488473027,0.0
1.582109479305741,0.3848131312343075,-0.12093194591457974,1.2616568776623949,0.16509111830650686,-0.012744885656547193,0.004954887259391741,0.13168406140306468,0.13173085876523144,0.39443480538976705,1.3072803024880322,0.0
1.602136181575434,0.38234670165878243,-0.12332147877625278,1.2649376393865388,0.16403808620719662,-0.012608429692818692,0.006822798186425027,0.13167491578455845,0.13171696531865068,0.39184672866291986,1.3105738901391553,0.0
1.622162883845127,0.37983291966554894,-0.12568909966167396,1.26819702290311,0.1629691758285659,-0.012438444011707316,0.0084992840555688,0.13166630253605707,0.13170368435303456,0.3892311507835117,1.3138456806453502,0.0
1.64218958611482,0.3772723685969839,-0.1280275534282524,1.271434729718622,0.16188534077559427,-0.012238690021793092,0.009987699495711416,0.1316581886529785,0.1316910111713067,0.38658825532180363,1.3170954443810947,0.0
1.6622162883845129,0.3746657617921259,-0.13033034024289863,1.2746504796008862,0.16078749411321738,-0.012012839416994697,0.011292530239919487,0.1316505277320927,0.13167892457419247,0.3839182277652987,1.3203229532667808,0.0
1.6822429906542056,0.3720139277694574,-0.13259170113342486,1.2778440093245715,0.15967648618426547,-0.011764454059915512,0.01241926785395944,0.13164326350831584,0.13166739046663012,0.38122125550572394,1.3235279807847222,0.0
1.7022696929238985,0.3693177957840391,-0.13480659927091487,1.2810150710847779,0.15855308801031284,-0.011496968312872972,0.013374287352126873,0.13163633317314052,0.1316563652599282,0.37849752782587825,1.3267103019950528,0.0
1.7222963951935915,0.36657838183465036,-0.13697069746943802,1.284163430683017,0.15741797991195305,-0.01121367374751141,0.0141647282680779,0.13162967040569495,0.131645798999659,0.37574723588634806,1.329869693551513,0.0
1.7423230974632844,0.3637967751872078,-0.1390803323721277,1.2872888655806882,0.15627174488356363,-0.01091770615337597,0.01479837970677219,0.13162320806834027,0.1316356381699925,0.3729705727120911,1.3330059337171258,0.0
1.7623497997329773,0.36097412547170543,-0.1411324857751192,1.2903911629044498,0.15511486618807477,-0.010612034756296886,0.015283569853954014,0.13161688053666307,0.131625828142998,0.37016773317888907,1.336118802379758,0.0
1.7823765020026703,0.3581116304012444,-0.14312475352305112,1.2934701174763503,0.15394772859502265,-0.010299453548996503,0.01562906036501949,0.13161062564603973,0.13161631525370102,0.3673389139996707,1.339208081067569,0.0
