time,x,x_dot,z,z_dot,theta,theta_dot,u1,u2,x_ref,z_ref,theta_ref
0.0,0.5479120971119267,-0.012224312049589542,1.3585979199113825,0.039473605811872786,-0.1623290608449402,0.09512447032735119,0.056323374920851516,0.05632337519349988,0.5,1.0,0.0
0.020026702269692925,0.5473981013640506,-0.02569978739380163,1.35711363576722,-0.07421420720812093,-0.16042823820851881,0.09504113182106799,0.05632337498859188,0.060886103421862514,0.4999824541392403,1.0041887412073853,0.0
0.04005340453938585,0.5466039112657662,-0.039709504914219956,1.3534242410456447,-0.18446973607876782,-0.1548789050543449,0.2774666577086973,0.05632337494966698,0.05920544622045627,0.4999298177883902,1.0083771884344908,0.0
0.06008010680907877,0.5455370736675429,-0.05334187991116905,1.3475079149596425,-0.2958163043001106,-0.14702962213782375,0.39246414582605627,0.056323374967685066,0.05835973871547608,0.49984209464164997,1.0125650477216688,0.0
0.0801068090787717,0.5442092561647383,-0.06639087514023045,1.3393564169637378,-0.40757489979524125,-0.13756004275195383,0.4734789692934951,0.05632337500049566,0.057710504272830615,0.49971929085573213,1.0167520251505358,0.0
0.10013351134846463,0.542635443049614,-0.07869065575621392,1.3289652963779601,-0.5195560292888854,-0.1269919727255315,0.5284035013211177,0.05632337506335088,0.05725612926780427,0.4995614150494292,1.0209378268645999,0.0
0.12016021361815754,0.5408328132110122,-0.09013149193009155,1.316333621096372,-0.6315837640793998,-0.11569066321619285,0.5650654754669302,0.056323375158333064,0.05702148459440546,0.49936847830300873,1.0251221590898847,0.0
0.14018691588785048,0.5388198754348837,-0.10064688880642136,1.3014641594251655,-0.7434730835603338,-0.10384505196930274,0.5922805623445061,0.056323375405628616,0.05682127632598086,0.499140494157436,1.0293047281555483,0.0
0.1602136181575434,0.5366162658157776,-0.11018048095530866,1.284360530078973,-0.8551814673096153,-0.09161623727838508,0.6114407345458845,0.05632337597730744,0.05657623707674224,0.4988774786134233,1.0334852405144925,0.0
0.1802403204272363,0.534242561269196,-0.11868522732907959,1.2650259582641394,-0.9667285907416797,-0.07920091364101607,0.6207661818684498,0.07571047564680235,0.0757502648760716,0.49857945013030697,1.0376634027639664,0.0
0.20026702269692925,0.5316673184447757,-0.1287621412210173,1.2440363718378058,-1.049479321316677,-0.06676985894243995,0.6215527349288062,0.11699974760990926,0.11678228946682928,0.4982464296247522,1.0418389216661577,0.0
0.22029372496662217,0.5288222934259568,-0.14225125094094443,1.222613912295683,-1.0711229771061461,-0.054528883405115844,0.6120487768662056,0.14728366007932614,0.14673326241253004,0.4978784404692846,1.0460115041687736,0.0
0.24032042723631508,0.5256913832137231,-0.15654551061168526,1.201653209074601,-1.048035161054094,-0.04274397945204088,0.5892451976537482,0.1689159402211699,0.1681229546738684,0.4974755084906501,1.0501808574256075,0.0
0.260347129506008,0.5222934948843132,-0.16989441647049347,1.181792790739523,-0.9930209167539067,-0.031608403165402296,0.5567788143319284,0.1834113205815413,0.1824495030229309,0.4970376619680023,1.0543466888170925,0.0
0.28037383177570097,0.5186694547454875,-0.18120200694128383,1.1634594770920312,-0.9166656823745821,-0.021256101722675374,0.5176150721363465,0.19233182773790045,0.1912620600897378,0.4965649316309177,1.0585087059708387,0.0
0.30040053404539385,0.5148714262783578,-0.18990142335648763,1.146914568461497,-0.827245431526715,-0.011772137186706113,0.47419822679846274,0.1969599960533507,0.19583025193874712,0.49605735065723894,1.0626666167821521,0.0
0.3204272363150868,0.5109553327511972,-0.19580467635802742,1.132291930146891,-0.7311319157302951,-0.0032031122912386,0.4284512447733757,0.19834792248060965,0.19719542387914935,0.49551495467074635,1.066820129434536,0.0
0.34045393858477974,0.5069757613926812,-0.1989785679258028,1.1196293395997603,-0.6331295273565297,0.004434155226003083,0.38186337586208413,0.19734864696831012,0.19620179757961026,0.4949377817386579,1.0709689524201722,0.0
0.3604806408544726,0.502982811238934,-0.19964750768736392,1.1088939491018959,-0.5367695248932198,0.011145527061430611,0.33556859177137643,0.19464795912105257,0.19352803639875646,0.49432587236895703,1.0751127945603784,0.0
0.38050734312416556,0.49902038450124436,-0.19812133688447986,1.1000027643622152,-0.44455923698403377,0.016953810098813926,0.2904141518691655,0.1907919238285754,0.1897144906726669,0.49367926950755014,1.0792513650260465,0.0
0.4005340453938585,0.49512549804886874,-0.19474432261878247,1.0928389364411106,-0.35819139605523187,0.02189416507843934,0.24701774898127088,0.18621052394022136,0.1851865866081801,0.49299801853525244,1.083384373358051,0.0
0.4205607476635514,0.49132827632525744,-0.1898610861805661,1.0872645648705865,-0.27871857852620563,0.026010451620784254,0.20581432711724545,0.18123774458696792,0.18027469626377923,0.49228216726460267,1.087511529487638,0.0
0.44058744993324434,0.48765236692584507,-0.1837954699706188,1.083130612987909,-0.20669759413387473,0.02935233524991285,0.16709418145643007,0.17612854807682574,0.17523093813449542,0.4915317659365077,1.09163254375678,0.0
0.4606141522029373,0.484115589250578,-0.1768388837633527,1.0802844480162745,-0.14230824858172303,0.031973014700762276,0.13103397254247193,0.17107319281524544,0.17024335571622742,0.49074686721671645,1.0957471269385064,0.0
0.48064085447263016,0.48073068323147183,-0.16924530095530899,1.0785754401734058,-0.08545039214343553,0.03392745549017237,0.09772203947050412,0.16620931201183564,0.16544788236830557,0.48992752619212343,1.0998549902572035,0.0
0.5006675567423231,0.47750606926433553,-0.16123069835681575,1.0778589874409223,-0.03582263662417062,0.03527103738202827,0.06717909459279521,0.1616321076973679,0.16093844178914676,0.48907380036690284,1.1039558454088796,0.0
0.520694259012016,0.4744465632565224,-0.152975300390657,1.0779992753693768,0.007014396422724667,0.03605853997421304,0.03937512960923826,0.15740294608409242,0.15677546625342004,0.48818574965847245,1.108049404581401,0.0
0.540720961281709,0.47155401450017287,-0.14462743781747617,1.078871033975586,0.04358793031046731,0.0363434040490427,0.014243203741483117,0.1535565690119834,0.15299304462507046,0.48726343639328856,1.1121353804746905,0.0
0.5607476635514019,0.4688278528256437,-0.1363080837264579,1.0803605134520577,0.07447397382358072,0.0361772174954771,-0.00830932767827933,0.15010709390175192,0.1496048675681913,0.48630692530247177,1.116213486320892,0.0
0.5807743658210948,0.46626554646843277,-0.1281153178605465,1.082365861401869,0.10026739749056313,0.0356093839345699,-0.028391678045360545,0.14705298601255465,0.1466091465498966,0.4853162835172637,1.1202834359044958,0.0
0.6008010680907877,0.4638629799074935,-0.12012832804696509,1.0847970475199744,0.12155930590526973,0.03468694602501639,-0.04612189547767516,0.14438123100804282,0.14399272857070422,0.48429158056431554,1.1243449435824273,0.0
0.6208277703604806,0.46161476238595994,-0.11241087607667566,1.0875754547490322,0.138920361452886,0.03345447828379963,-0.06162338706083759,0.14207057115050817,0.14173430772132123,0.4832328883608088,1.128397724304094,0.0
0.6408544726301736,0.4595144774511864,-0.10501424673867617,1.0906332296162051,0.15288874335864655,0.031954046736782746,-0.07502157735084508,0.1400945766211301,0.1398074617503742,0.48214028120940733,1.1324414936313905,0.0
0.6608811748998665,0.45755488409824824,-0.0979796676469082,1.0939124811230545,0.16396257534246916,0.03022521394871504,-0.08644163940338498,0.1384236211108699,0.13818261516080738,0.48101383579304297,1.1364759677586627,0.0
0.6809078771695595,0.45572807910948154,-0.09134024943833519,1.0973643863973899,0.17259526371677272,0.02830507930943996,-0.0960067319637539,0.13702665866514951,0.1368287896312002,0.47985363116953333,1.1405008635326255,0.0
0.7009345794392524,0.454025629529186,-0.08512247901477674,1.10094825556822,0.17919345854150015,0.02622833331917117,-0.10383729951343937,0.1358725250588961,0.13571489791715016,0.4786597487660336,1.144515898472236,0.0
0.7209612817089452,0.4524386828711841,-0.07934733290009649,1.1046305945677264,0.18411694997531936,0.024027319799143448,-0.11005067600138622,0.1349308933104731,0.13481069256036013,0.4774322723733215,1.1485207907885173,0.0
0.7409879839786382,0.4509580612052643,-0.07403108329599015,1.108384194274337,0.18767998533053437,0.0217321005011413,-0.1147609649001076,0.13417295153535164,0.13408743987622415,0.4761712881399164,1.1525152594043386,0.0
0.7610146862483311,0.4495743438727964,-0.06918586662339869,1.1121872661516248,0.19015359386438518,0.019370518952686044,-0.11807907742276266,0.13357185816649073,0.13351837338439118,0.47487688456603344,1.156499023974139,0.0
0.7810413885180241,0.44827794232206836,-0.06482007753640207,1.1160226379007934,0.1917685874584302,0.016968262045754384,-0.12011284534658305,0.1331030215597641,0.133078973066709,0.47354915249737217,1.1604718049036047,0.0
0.801068090787717,0.44705916947775964,-0.06093864221543619,1.1198770174035821,0.19271897513944142,0.014548919038897943,-0.12096715034282185,0.13274424325386727,0.13274710921868063,0.4721881851187405,1.1644333233692916,0.0
0.82109479305741,0.4459083051806131,-0.05754321485732774,1.1237403291601,0.19316558782589685,0.012134038400362606,-0.1207440319267669,0.13247575717007623,0.13250308278569348,0.4707940779475151,1.1683833013381941,0.0
0.8411214953271028,0.44481565854703436,-0.05463233167893606,1.1276051243152612,0.19323975775805596,0.009743183360982115,-0.11954275196902461,0.1322801912757889,0.13232958841305778,0.46936692882693704,1.1723214615872586,0.0
0.8611481975967957,0.44377162758711497,-0.05220154799596959,1.131466063046921,0.1930469365829962,0.007393987249967834,-0.11745980555071416,0.13214247278723792,0.1322116210673321,0.4679068379192454,1.1762475277228392,0.0
0.8811748998664887,0.44276675606056015,-0.05024357632774062,1.1353194663966444,0.1926701674861668,0.005102209716121505,-0.11458887669231635,0.13204969389030224,0.13213634305097907,0.46641390769864727,1.1801612242000974,0.0
0.9012016021361816,0.4417917873186343,-0.04874843709629506,1.1391629334387008,0.1921733521028161,0.002881794840527702,-0.1110207437796902,0.1319909513894545,0.1320929247259529,0.46488824294412573,1.184062276342339,0.0
0.9212283044058746,0.4408377147520391,-0.04770362832975979,1.1429950188988205,0.19160427300599042,0.0007449319745765588,-0.10684314329755715,0.1319571707669187,0.13207236937432718,0.4633299507320861,1.1879504103602934,0.0
0.9412550066755675,0.4398958284167354,-0.04709431676518449,1.1468149658647455,0.19099734829625203,-0.00129788007828809,-0.10214060264323242,0.1319409227893353,0.13206733031183138,0.4617391404288412,1.1918253533713281,0.0
0.9612817089452603,0.4389577574216012,-0.04690354975671073,1.1506224880062292,0.1903761070741862,-0.0032377651513139844,-0.09699425365129469,0.13193623892947337,0.13207192652604943,0.4601159236829352,1.1956868334186013,0.0
0.9813084112149533,0.4380155077156913,-0.0471124852954936,1.1544175956874063,0.18975538405885364,-0.005067397917140085,-0.09148163829130493,0.13193843036000785,0.1320815616180368,0.4584604144173082,1.1995345794901475,0.0
1.0013351134846462,0.4370614949937142,-0.04770063609885434,1.1582004604643577,0.18914323884756631,-0.006780928259779659,-0.08567651713197877,0.13194391408129943,0.13209274964261647,0.45677272882130043,1.2033683215379,0.0
1.0213618157543392,0.43608857253389804,-0.04864612299080882,1.1619713126794524,0.18854261075473994,-0.008373902056478881,-0.07964868983496108,0.13195004877872296,0.13210295048260406,0.45505298534249783,1.2071877904966422,0.0
1.041388518024032,0.4350900538829785,-0.049925932545977686,1.1657303671625034,0.18795272415254846,-0.009843178763645126,-0.07346383535831214,0.13195498223679117,0.1321104166266081,0.45330130467841884,1.2109927183028915,0.0
1.061415220293725,0.4340597304012405,-0.051516174086899715,1.1694777724035643,0.1873702620530483,-0.01118684632087761,-0.06718337786162427,0.13195751151324475,0.1321140525957316,0.4515178097680436,1.2147828379137142,0.0
1.081441922563418,0.43299188377109465,-0.05339233150729238,1.173213578954202,0.18679032753188768,-0.012404133973450684,-0.06086438262865364,0.1319569565678426,0.13211328775356657,0.44970262578318554,1.2185578833254664,0.0
1.101468624833111,0.4318812936520671,-0.05552950595137673,1.1769377232275788,0.18620721366884654,-0.013495323668436402,-0.05455948474928586,0.13195304762810703,0.1321079628175053,0.44785588011970645,1.2223175895924638,0.0
1.1214953271028039,0.43072324073132484,-0.05790264603711323,1.1806500232898633,0.18561500311422033,-0.014461660706152747,-0.04831685188581739,0.13194583188713382,0.13209823611635296,0.4459777023885754,1.2260616928455754,0.0
1.1415220293724968,0.4295135054688134,-0.06048676312557129,1.1843501838294053,0.18500802697709523,-0.01530526399551738,-0.04218016446823153,0.1319355625070918,0.13208447000961548,0.44406822440677224,1.229789930310744,0.0
1.1615487316421895,0.4282483628873624,-0.0632571290725489,1.1880378069478976,0.1843811559246199,-0.016029037975975897,-0.036188699022925826,0.13192266894980678,0.13206720293760135,0.44212758018803616,1.2335020403274277,0.0
1.1815754339118825,0.4269245737571611,-0.06618945651006487,1.19171240790445,0.183730047827625,-0.016636584823362426,-0.030377342369326592,0.13190766303518614,0.1320470536015593,0.4401559059334601,1.2371977623669645,0.0
1.2016021361815754,0.425539372564189,-0.06926005964860363,1.1953734329955468,0.18305125455482824,-0.01713211843623716,-0.024776680643736396,0.13189109952204406,0.13202468045595872,0.4381533400219318,1.2408768370508576,0.0
1.2216288384512684,0.4240904526431746,-0.07244599605072041,1.199020278391434,0.1823422697943626,-0.017520381066076982,-0.019413131491991194,0.13187353616965908,0.13200074155415556,0.43612002300042185,1.244539006168978,0.0
1.2416555407209613,0.4225759488553512,-0.07572518939116826,1.202652308754405,0.1816015181485471,-0.017806562755978476,-0.014309084495074474,0.13185550377903113,0.13197586406787706,0.4340560975741196,1.2481840126976884,0.0
1.2616822429906542,0.4209944181789583,-0.07907653381964787,1.206268874761618,0.18082830036064365,-0.01799622399740109,-0.009483062071131008,0.1318374841660641,0.13195062181989964,0.43196170859641764,1.2518116008178803,0.0
1.2817089452603472,0.419344818564733,-0.08247998071126517,1.2098693288957645,0.1800227067073326,-0.018095221949538012,-0.004949897606846166,0.13181989521883877,0.13192551997697619,0.42983700305874556,1.2554215159329298,0.0
1.3017356475300401,0.4176264863893643,-0.08591660876843488,1.213453039080953,0.17918550925942617,-0.018109640505195323,-0.0007209277828655247,0.1318030819972027,0.13190098585946866,0.4276821300802533,1.2590135046865651,0.0
1.321762349799733,0.415839112818392,-0.08936867854861527,1.2170193999230456,0.17831804210463362,-0.018045724427887953,0.0031958038653684883,0.13178731287388248,0.13187736486211923,0.4254972408973459,1.262587314980648,0.0
1.341789052069426,0.4139827193673719,-0.0928196725510029,1.220567841464733,0.1774220770843657,-0.017909818056409652,0.006795318573915192,0.13177277967600678,0.13185492062074064,0.4232824888530689,1.266142695992867,0.0
1.361815754339119,0.41205763292711617,-0.09625432201278644,1.2240978354874832,0.17649970113751473,-0.01770830839366751,0.010075483137107048,0.13175960111194748,0.13183383837933813,0.42103802938634616,1.2696793981943417,0.0
1.3818424566088119,0.41006446049479084,-0.09965862161626525,1.2276088994874932,0.1755532000005031,-0.017447571750191043,0.013036832173823476,0.13174782888304631,0.1318142305985747,0.4187640200210709,1.2731971733671346,0.0
1.4018691588785048,0.4080040638304856,-0.1030198332152626,1.2311005985240662,0.17458495182865302,-0.017133925044751475,0.015682335271978654,0.1317374552544525,0.13179614460394007,0.4164606203550497,1.276695774621672,0.0
1.4218958611481975,0.4058775342411771,-0.10632647946542334,1.2345725451886098,0.17359733322717713,-0.0167735817143601,0.018017166519568428,0.1317284217346567,0.13177957137396676,0.4141279920488021,1.2801749564140723,0.0
1.4419225634178905,0.4036861676732251,-0.10956832839759992,1.238024397973301,0.1725926392345593,-0.016372612143727695,0.02004847853162053,0.13172062828964032,0.13176445488283398,0.4117662988142137,1.283634474563378,0.0
1.4619492656875834,0.4014314402750788,-0.11273636990731585,1.2414558583319533,0.17157301793261823,-0.015936908508071976,0.02178518178278568,0.13171394264542727,0.13175070155137353,0.40937570640304727,1.287074086268695,0.0
1.4819759679572764,0.39911498457371913,-0.11582278506798557,1.2448666667258075,0.1705404196927111,-0.015472153906857484,0.02323773006072454,0.1317082093851132,0.13173818951147648,0.4069563825953091,1.2904935501262298,0.0
1.5020026702269693,0.3967385663913589,-0.11882090911801177,1.248256597938444,0.16949656063182147,-0.014983795650688662,0.024417912808440925,0.13170325848371917,0.1317267773261642,0.4045084971874737,1.2938926261462367,0.0
1.5220293724966623,0.3943040626130138,-0.12172518891725308,1.251625455924989,0.16844289932725745,-0.014477022549154889,0.025338655076688588,0.1316989130859893,0.13171631196896041,0.4020322219805673,1.2972710757698567,0.0
1.5420560747663552,0.3918134399005644,-0.12453113562247246,1.2549730684361111,0.16738062555610392,-0.013956746034262594,0.026013825744615013,0.13169499637914459,0.13170663591276982,0.3995277307681099,1.3006286618858631,0.0
1.5620827770360481,0.3892687344347501,-0.1272352732907163,1.2582992816284009,0.16631065961448546,-0.013427584942438798,0.026458054591189877,0.13169133746857017,0.131697593234411,0.3969951993239177,1.3039651488473027,0.0
1.582109479305741,0.3866720327530783,-0.12983508408358643,1.2616039548413043,0.16523366064517464,-0.012893853767965252,0.026686558723677117,0.13168777621463446,0.13168903469112556,0.39443480538976705,1.3072803024880322,0.0
1.602136181575434,0.3840254537388191,-0.1323289507129609,1.2648869556883249,0.16415004235103314,-0.012359554192130688,0.026714978791727968,0.13168416703110672,0.1316808217676343,0.39184672866291986,1.3105738901391553,0.0
1.622162883845127,0.3813311318040452,-0.13471609673869397,1.2681481555780036,0.16305999448394085,-0.011828369685384454,0.0265592253373121,0.13168038167967278,0.13167282972634203,0.3892311507835117,1.3138456806453502,0.0
1.64218958611482,0.3785912012980444,-0.1369965253000412,1.2713874257492361,0.16196350856162148,-0.011303662974325302,0.026235335552957408,0.13167631112267578,0.13166494972092746,0.38658825532180363,1.3170954443810947,0.0
1.6622162883845129,0.3758077821613636,-0.13917095683403968,1.2746046338766013,0.1608604063682577,-0.010788476161458109,0.025759340643359715,0.13167186651631044,0.1316570900536753,0.3839182277652987,1.3203229532667808,0.0
1.6822429906542056,0.3729829668352634,-0.14124076630501178,1.2777996412751522,0.159750369927547,-0.010285533283269272,0.025147143909441897,0.1316669794412714,0.13164917667170986,0.38122125550572394,1.3235279807847222,0.0
1.7022696929238985,0.3701188084264797,-0.1432079204391852,1.2809723007109668,0.1586329717907332,-0.009797245091283206,0.02441440959930322,0.13166160147657016,0.13164115300604778,0.37849752782587825,1.3267103019950528,0.0
1.7222963951935915,0.3672173101179445,-0.1450749154267612,1.284122454803927,0.15750770464800382,-0.00932571584132385,0.023576462497967868,0.13165570322640494,0.1316329792616184,0.37574723588634806,1.329869693551513,0.0
1.7423230974632844,0.36428041580753523,-0.14684471552046371,1.2872499349927788,0.1563740094425936,-0.008872751878157429,0.02264819815832098,0.13164927290989742,0.13162463126640164,0.3729705727120911,1.3330059337171258,0.0
1.7623497997329773,0.36131000194904117,-0.14852069292470269,1.2903545610195113,0.15523130133662352,-0.008439871805981596,0.02164400360879158,0.13164231462068046,0.13161609898509838,0.37016773317888907,1.336118802379758,0.0
1.7823765020026703,0.3583078705623776,-0.15010656933317804,1.2934361408803514,0.15407899304200348,-0.008028318039762653,0.020577688310947174,0.13163484635531092,0.13160738479484813,0.3673389139996707,1.339208081067569,0.0
