time,x,x_dot,z,z_dot,theta,theta_dot,u1,u2,x_ref,z_ref,theta_ref
0.0,0.45979699052943523,0.03868299136037606,1.4419210172345827,-0.08806958799104517,0.07620838829026134,0.08447950380264324,0.0568248448431765,0.0563233749073665,0.5,1.0,0.0
0.020026702269692925,0.4606975941075456,0.045030178905518255,1.4379125747668253,-0.20042212338786997,0.07749533707347404,0.06434743916063594,0.06038216938826703,0.056323374920592056,0.4999824541392403,1.0041887412073853,0.0
0.04005340453938585,0.46172896379590267,0.051568484417851806,1.4317119505565263,-0.31003121051495486,0.07553415766882812,-0.09805897023229752,0.05896392673857636,0.05632337499287763,0.4999298177883902,1.0083771884344908,0.0
0.06008010680907877,0.46289147556603616,0.0581255885066731,1.4233006798842125,-0.42056353361568893,0.0714622641705666,-0.20359467491307426,0.058125504371818085,0.05632337501880691,0.49984209464164997,1.0125650477216688,0.0
0.0801068090787717,0.4641806118398134,0.06445681368886132,1.412669699497512,-0.5315490193350231,0.06595260029647226,-0.2754831937047163,0.057600638671518795,0.05632337504731831,0.49971929085573213,1.0167520251505358,0.0
0.10013351134846463,0.46558867334408327,0.07040307521349187,1.3998152331470863,-0.6427233175212856,0.059426763423493664,-0.32629184364893055,0.05720002363143538,0.05632337508187033,0.4995614150494292,1.0209378268645999,0.0
0.12016021361815754,0.46710572061680045,0.07585236363585787,1.384735871095637,-0.7539681025724658,0.052206547152213005,-0.36101081356403225,0.05689488783218026,0.056323374967684865,0.49936847830300873,1.0251221590898847,0.0
0.14018691588785048,0.46872025289229113,0.08072661377453337,1.3674320606701174,-0.8651905212759787,0.04453699440873422,-0.3834776371739403,0.05677377870404423,0.05632337502485362,0.499140494157436,1.0293047281555483,0.0
0.1602136181575434,0.4704198042254481,0.08497756665784925,1.3479073527772159,-0.9762353946450759,0.0365156182653114,-0.40106880717114074,0.05662232792304498,0.056323375129245956,0.4988774786134233,1.0334852405144925,0.0
0.1802403204272363,0.4721911613372078,0.08856785558798334,1.326165181332651,-1.087108572228245,0.028264078719582825,-0.4125769772864285,0.056433819975183326,0.05632337584604047,0.49857945013030697,1.0376634027639664,0.0
0.20026702269692925,0.47402054067780314,0.09146896702976855,1.3022087385554366,-1.197822138860717,0.01993351162610981,-0.416528354673651,0.0924297931174455,0.09248407029575453,0.4982464296247522,1.0418389216661577,0.0
0.22029372496662217,0.47592411653009203,0.09517879261444594,1.2771128547069839,-1.2547941924226365,0.01165580515598185,-0.413885323506398,0.13333443718996058,0.13365741746032075,0.4978784404692846,1.0460115041687736,0.0
0.24032042723631508,0.47790309364161965,0.09894885557637986,1.2520969611419357,-1.250794678252411,0.0036458370318375563,-0.40049840620721444,0.16256816124170964,0.16313985902791767,0.4974755084906501,1.0501808574256075,0.0
0.260347129506008,0.4799347426794093,0.10158245188948137,1.228031166522936,-1.2032897309499873,-0.003897813177347238,-0.3771825104592397,0.18252928799625406,0.18327027747123467,0.4970376619680023,1.0543466888170925,0.0
0.28037383177570097,0.48198256138024814,0.102390935041942,1.2055070902479819,-1.1262038137477026,-0.01084037748704085,-0.3471282154846808,0.19519326852018312,0.1960390850805621,0.4965649316309177,1.0585087059708387,0.0
0.30040053404539385,0.4840042974037228,0.10108680117373187,1.184897401131083,-1.0304844558449398,-0.017098822836189784,-0.3129222674574463,0.20227028011572987,0.20317058102761967,0.49605735065723894,1.0626666167821521,0.0
0.3204272363150868,0.4859576295532506,0.09766660747639112,1.1664074500432993,-0.9244975543891919,-0.02263046807936512,-0.27658226215876686,0.20514945926281958,0.20606625530362493,0.49551495467074635,1.066820129434536,0.0
0.34045393858477974,0.4878037839167547,0.09230771817520393,1.150117236257123,-0.8145106893088068,-0.027423038431088623,-0.23962851758617537,0.20494872116707763,0.2058540911090438,0.4949377817386579,1.0709689524201722,0.0
0.3604806408544726,0.48950953414677023,0.08528751150077594,1.1360151466601864,-0.7051044798468283,-0.0314865683419044,-0.2031764955407886,0.20255848500986365,0.2034325018820065,0.49432587236895703,1.0751127945603784,0.0
0.38050734312416556,0.491048030414152,0.0769248133690898,1.1240247713116809,-0.599518767425277,-0.034846979212946105,-0.16802054355208507,0.1986803948685497,0.19950936369131114,0.49367926950755014,1.0792513650260465,0.0
0.4005340453938585,0.492398839986235,0.0675404786041498,1.1140259697497468,-0.49994007809670316,-0.03754107874710578,-0.13470497670798362,0.1938605703671739,0.19463558760022018,0.49299801853525244,1.083384373358051,0.0
0.4205607476635514,0.49354750259065705,0.057433130221102184,1.1058712071035588,-0.40773813230939526,-0.0396127211384459,-0.10358211956700589,0.18851785466324536,0.18923365529981806,0.49228216726460267,1.087511529487638,0.0
0.44058744993324434,0.4944848253884117,0.04686613988773361,1.0993980301244337,-0.3236588489562561,-0.041109895267368544,-0.0748587064461331,0.18296764140683036,0.18362168696891787,0.4915317659365077,1.09163254375678,0.0
0.4606141522029373,0.4952060745306629,0.03606245711255844,1.0944384177800495,-0.24798061721920828,-0.04208254613255703,-0.048632543259424316,0.17744186011969867,0.17803362149172555,0.49074686721671645,1.0957471269385064,0.0
0.48064085447263016,0.49571016587711725,0.025204567322717312,1.0908256213549132,-0.18063982125680886,-0.04258097216139617,-0.024921301441956187,0.17210567851362296,0.1726360747422859,0.48992752619212343,1.0998549902572035,0.0
0.5006675567423231,0.4959989162628999,0.014437519289131857,1.0883990058675928,-0.12133077436602349,-0.042654672582056914,-0.003685021033037389,0.16707140751989813,0.16754236940918266,0.48907380036690284,1.1039558454088796,0.0
0.520694259012016,0.49607638705794654,0.003873539752333028,1.0870073166073861,-0.06958446301032575,-0.04235154431470805,0.015156413367443444,0.16241002787565162,0.16282416190296317,0.48818574965847245,1.108049404581401,0.0
0.540720961281709,0.49594833153442225,-0.006402776176215147,1.0865107200039819,-0.024829830170214,-0.04171735501880958,0.03170946479492365,0.1581606916355929,0.15852102897434378,0.48726343639328856,1.1121353804746905,0.0
0.5607476635514019,0.4956217447728303,-0.016329338079600075,1.086781905004879,0.013559250044859854,-0.040795419349148494,0.04609678348305435,0.15433850587724218,0.1546483166050842,0.48630692530247177,1.116213486320892,0.0
0.5807743658210948,0.49510451557517055,-0.0258614598829869,1.0877064683162356,0.04622816556783439,-0.03962640674967884,0.05845062997348187,0.15094101952257336,0.1512036580994847,0.4853162835172637,1.1202834359044958,0.0
0.6008010680907877,0.4944051635587897,-0.03496760081904032,1.0891827459514285,0.07381388175963847,-0.03824827330592357,0.068906672187764,0.1479535517390733,0.14817233998155196,0.48429158056431554,1.1243449435824273,0.0
0.6208277703604806,0.49353261917620994,-0.043627219128989425,1.091121352412493,0.09693032305322795,-0.03669628791119918,0.07759926973621892,0.14535268129767537,0.145530871032866,0.4832328883608088,1.128397724304094,0.0
0.6408544726301736,0.4924960606408077,-0.05182792677011273,1.0934444773144973,0.11615624510022014,-0.03500308883463414,0.08465995382825227,0.14310914421145723,0.1432498825917439,0.48214028120940733,1.1324414936313905,0.0
0.6608811748998665,0.4913047930498752,-0.059563379546627174,1.096085007183589,0.1320264934545842,-0.03319876845138708,0.0902160191623533,0.14119050972890765,0.1412968210462456,0.48101383579304297,1.1364759677586627,0.0
0.6809078771695595,0.48996815858045545,-0.06683172347098677,1.0989855526554524,0.14502727359316295,-0.03131097283186452,0.09438978097612749,0.1395631324325599,0.13963791040585455,0.47985363116953333,1.1405008635326255,0.0
0.7009345794392524,0.4884954689387971,-0.0736344820829189,1.102097439671556,0.15559435080517875,-0.029365007727653623,0.0972982552105451,0.1381935850613455,0.13823959198252422,0.4786597487660336,1.144515898472236,0.0
0.7209612817089452,0.48689595317981854,-0.07997578794892678,1.105379707656308,0.16411339923760868,-0.027383945399439703,0.09905311641069581,0.13704967408119798,0.13706954412252784,0.4774322723733215,1.1485207907885173,0.0
0.7409879839786382,0.4851787157376054,-0.08586187211065767,1.108798145111665,0.17092187276785253,-0.025388728903496312,0.09976082479716976,0.13610112604089414,0.1360973706968511,0.4761712881399164,1.1525152594043386,0.0
0.7610146862483311,0.48335270097372357,-0.091300738194092,1.1123243831684804,0.17631190284076034,-0.023398272085519697,0.09952284089883062,0.13532001785207448,0.1352950320726427,0.47487688456603344,1.156499023974139,0.0
0.7810413885180241,0.48142666174511267,-0.09630196143054481,1.115935059938386,0.18053383849527765,-0.021429554693640863,0.09843586959394159,0.13468101100137073,0.13463707905842412,0.47354915249737217,1.1604718049036047,0.0
0.801068090787717,0.4794091304300713,-0.1008765657520694,1.1196110626209306,0.18380013412722868,-0.019497712795811487,0.09659209489146901,0.13416143846379197,0.13410073897857522,0.4721881851187405,1.1644333233692916,0.0
0.82109479305741,0.4773083915558963,-0.10503694370874833,1.1233368498994514,0.18628936392603693,-0.017616125149548148,0.09407938231316681,0.13374128343039565,0.13366589328317943,0.4707940779475151,1.1683833013381941,0.0
0.8411214953271028,0.4751324556782711,-0.10879679388126019,1.1270998539148558,0.1881502007702213,-0.015796496399257096,0.0909814375145527,0.13340308110936755,0.13331497816817298,0.46936692882693704,1.1723214615872586,0.0
0.8611481975967957,0.47288903450512887,-0.11217105865711195,1.1308899588025512,0.1895052443847744,-0.014048938030152804,0.08737791845521438,0.13313176802696333,0.13303283277680372,0.4679068379192454,1.1762475277228392,0.0
0.8811748998664887,0.47058551746989097,-0.11517585176189414,1.1346990512085071,0.1904546202978005,-0.012382047945390003,0.08334450423814022,0.13291449790245768,0.13280651414599623,0.46641390769864727,1.1801612242000974,0.0
0.9012016021361816,0.46822895007078835,-0.11782836995513091,1.1385206372047214,0.19107929981071967,-0.010802989398719943,0.07895292733350295,0.13274043879920638,0.1326250936484104,0.46488824294412573,1.184062276342339,0.0
0.9212283044058746,0.4658260143306171,-0.12014678700856382,1.1423495194706155,0.1914441132946989,-0.00931756984148742,0.07427097786162597,0.13260056263619255,0.13247944603066178,0.4633299507320861,1.1879504103602934,0.0
0.9412550066755675,0.4633830117168125,-0.12215013069022967,1.1461815283862358,0.19160044578101637,-0.007930320056251106,0.0693624892618156,0.13248743532021964,0.1323620393009017,0.4617391404288412,1.1918253533713281,0.0
0.9612817089452603,0.4609058488130735,-0.1238581451869495,1.150013300710561,0.1915886162162597,-0.006644573768221596,0.06428731440147557,0.13239501349904986,0.1322667314445162,0.4601159236829352,1.1956868334186013,0.0
0.9813084112149533,0.45840002596510676,-0.12529114239833694,1.1538420997256338,0.19143995075363743,-0.005462547761738243,0.05910130032416765,0.13231845214961555,0.13218857815171045,0.4584604144173082,1.1995345794901475,0.0
1.0013351134846462,0.45587062904522235,-0.12646984599421918,1.1576656710608493,0.19117856676077888,-0.0043854223891977625,0.05385626862702402,0.13225392581047657,0.1321236543316175,0.45677272882130043,1.2033683215379,0.0
1.0213618157543392,0.45332232440145886,-0.1274152321881755,1.1614821288291548,0.1908228884152813,-0.003413422247528691,0.048600007083453564,0.13219846517589753,0.13206889109507086,0.45505298534249783,1.2071877904966422,0.0
1.041388518024032,0.4507593569821961,-0.12814837096313877,1.1652898671752152,0.19038691730302545,-0.002545896713019258,0.043376276725471626,0.13214980991398165,0.1320219290348621,0.45330130467841884,1.2109927183028915,0.0
1.061415220293725,0.44818555156042356,-0.1286902710886261,1.1690874928289758,0.18988128268802792,-0.001781399967741732,0.0382248372638763,0.13210627792369048,0.1319809879878882,0.4515178097680436,1.2147828379137142,0.0
1.081441922563418,0.4456043169250055,-0.12906173177090305,1.1728737747569573,0.18931409639907504,-0.001117770117408497,0.03318149251666175,0.1320666507525261,0.13194475297468033,0.44970262578318554,1.2185578833254664,0.0
1.101468624833111,0.44301865286027353,-0.12928320323659875,1.1766476074931889,0.18869163681157394,-0.0005522069879292096,0.028278156473964373,0.13203007452720925,0.13191227564680824,0.44785588011970645,1.2223175895924638,0.0
1.1214953271028039,0.44043115970006114,-0.12937465801061981,1.1804079852007978,0.18801888538044423,-8.134819265827647e-05,0.023542939763546652,0.1319959814543106,0.13188289652866073,0.4459777023885754,1.2260616928455754,0.0
1.1415220293724968,0.4378440502171414,-0.1293554741459872,1.184153984136534,0.18729994678681738,0.0002986571167737108,0.01900026547159936,0.13196399172959586,0.1318561465112537,0.44406822440677224,1.229789930310744,0.0
1.1615487316421895,0.4352591635937315,-0.12924433117049516,1.1878847505999497,0.18653832317078714,0.0005920764773592572,0.01467096802927732,0.13193390213583528,0.13183173663800435,0.44212758018803616,1.2335020403274277,0.0
1.1815754339118825,0.43267798121000256,-0.12905911918644813,1.1915994940482042,0.18573717241272492,0.000803525263918407,0.010572439327957494,0.13190560079142227,0.13180947377172622,0.4401559059334601,1.2371977623669645,0.0
1.2016021361815754,0.4301016439861594,-0.12881686119215666,1.195297482868633,0.1848994410214356,0.0009379014889908566,0.006718811253622489,0.1318790417747906,0.13178923432363265,0.4381533400219318,1.2408768370508576,0.0
1.2216288384512684,0.42753097101676113,-0.12853364846991508,1.1989780420533749,0.1840279592370972,0.0010003235305292243,0.003121102076918372,0.131854215270026,0.13177093516526373,0.43612002300042185,1.244539006168978,0.0
1.2416555407209613,0.4249664792466428,-0.12822458850591523,1.2026405519145265,0.18312549305757636,0.000996071394894967,-0.00021260678171285217,0.13183112568473523,0.13175451194149718,0.4340560975741196,1.2481840126976884,0.0
1.2616822429906542,0.4224084039473953,-0.1279037649623763,1.2062844472077556,0.1821947646614578,0.0009305316671024405,-0.003276986389626327,0.13180977595732207,0.13173990352329729,0.43196170859641764,1.2518116008178803,0.0
1.2817089452603472,0.4198567197667285,-0.12758420903334144,1.2099092162158402,0.1812384504042294,0.0008091465958094423,-0.00606925356464991,0.13179015713566258,0.1317270414948717,0.42983700305874556,1.2554215159329298,0.0
1.3017356475300401,0.41731116213782227,-0.12727788144531163,1.213514399496445,0.18025916403024397,0.000637366709683992,-0.008588994306272522,0.1317722419726302,0.13171584396311697,0.4276821300802533,1.2590135046865651,0.0
1.321762349799733,0.41477124885266503,-0.12699566425786088,1.2170995881215927,0.17925943125738286,0.0004206070208526214,-0.010837984441568528,0.13175598181218798,0.13170621262721247,0.4254972408973459,1.262587314980648,0.0
1.341789052069426,0.41223630161798674,-0.1267473617339156,1.2206644213324727,0.1782416605439966,0.00016420727211382793,-0.012819987436939666,0.13174130613426618,0.13169803224036164,0.4232824888530689,1.266142695992867,0.0
1.361815754339119,0.40970546742709113,-0.1265417095447808,1.224208583606866,0.17720811371966652,-0.00012660384118300404,-0.014540555664841595,0.13172812399076286,0.13169117194348315,0.42103802938634616,1.2696793981943417,0.0
1.3818424566088119,0.40717773959713993,-0.12638639149755995,1.2277318011907723,0.1761608791953239,-0.00044674055932401527,-0.016006835907050564,0.131716326748903,0.1316854878867753,0.4187640200210709,1.2731971733671346,0.0
1.4018691588785048,0.40465197833714056,-0.1262880629999683,1.2312338381826902,0.17510184959588793,-0.0007912881570335589,-0.01722737988547717,0.1317057916557985,0.13168082665378458,0.4164606203550497,1.276695774621672,0.0
1.4218958611481975,0.4021269307269912,-0.1262523805074699,1.2347144922814035,0.17403270493566547,-0.0011555273685749487,-0.018211960577069516,0.13169638585057916,0.13167702911552792,0.4141279920488021,1.2801749564140723,0.0
1.4419225634178905,0.3996012500024177,-0.12628403622867346,1.2381735903194886,0.17295490190425142,-0.0015349552689593964,-0.018971395019222383,0.13168797050676398,0.13167393439889707,0.4117662988142137,1.283634474563378,0.0
1.4619492656875834,0.3970735140544967,-0.1263867973960495,1.2416109837067806,0.17186966936460157,-0.0019253027538944237,-0.019517374246751353,0.13168040477121118,0.1316713836378289,0.40937570640304727,1.287074086268695,0.0
1.4819759679572764,0.3945422430657059,-0.1265635494395402,1.2450265439003272,0.17077800967733273,-0.002322548772158277,-0.01986230091319263,0.13167354947764984,0.13166922348678556,0.4069563825953091,1.2904935501262298,0.0
1.5020026702269693,0.39200591621708825,-0.12681634243088252,1.2484201580091425,0.16968070544076164,-0.0027229314738572044,-0.020019135084946415,0.13166727039411114,0.13166730915771097,0.4045084971874737,1.2938926261462367,0.0
1.5220293724966623,0.3894629874131694,-0.12714644019594232,1.2517917246269188,0.16857833088881113,-0.003122956446272388,-0.02000124862075917,0.13166144095657234,0.13166550693497664,0.4020322219805673,1.2972710757698567,0.0
1.5420560747663552,0.3869118999827357,-0.12755437152168803,1.2551411499694909,0.1674712671286011,-0.0035194022154546195,-0.019822288459111576,0.13165594444770842,0.1316636961289629,0.3995277307681099,1.3006286618858631,0.0
1.5620827770360481,0.384351100324459,-0.12803998291383198,1.2584683443764695,0.1663597203489253,-0.003909323196742583,-0.019496049064398176,0.13165067561372315,0.13166177046307748,0.3969951993239177,1.3039651488473027,0.0
1.582109479305741,0.3817790504766406,-0.12860249239091887,1.261773219219084,0.1652437421307293,-0.004290050280909026,-0.019036354208322198,0.13164554173633608,0.13165963891305904,0.39443480538976705,1.3072803024880322,0.0
1.602136181575434,0.37919423960002036,-0.12924054383101308,1.265055684239604,0.16412325102599046,-0.00465918924472958,-0.018456948191027642,0.13164046319712167,0.13165722603746513,0.39184672866291986,1.3105738901391553,0.0
1.622162883845127,0.376595194371654,-0.1299522614183171,1.2683156453323225,0.16299805463592948,-0.005014617175481737,-0.017771396537607877,0.13163537358523608,0.1316544718520068,0.3892311507835117,1.3138456806453502,0.0
1.64218958611482,0.3739804882962715,-0.13073530376912393,1.2715530027623978,0.16186787150375986,-0.005354477098283779,-0.0169929961401021,0.13163021940869182,0.13165133130943396,0.38658825532180363,1.3170954443810947,0.0
1.6622162883845129,0.3713487499492824,-0.13158691734945435,1.2747676498070797,0.1607323522340974,-0.005677170993344763,-0.016134694753049225,0.1316249594746097,0.13164777345184242,0.3839182277652987,1.3203229532667808,0.0
1.6822429906542056,0.36869867017267344,-0.1325039888304474,1.2779594717941778,0.15959109935490032,-0.005981351387205631,-0.015209019693043418,0.13161956400569388,0.13164378030400664,0.38122125550572394,1.3235279807847222,0.0
1.7022696929238985,0.3660290082514359,-0.1334830960618767,1.2811283455050426,0.1584436855432396,-0.0062659116979744914,-0.014228015538442985,0.1316140135585103,0.13163934557455662,0.37849752782587825,1.3267103019950528,0.0
1.7222963951935915,0.3633385971038599,-0.1345205573788001,1.2842741389038053,0.15728966993813012,-0.006529975509500504,-0.013203190576300658,0.1316082978069227,0.13163447322947516,0.37574723588634806,1.329869693551513,0.0
1.7423230974632844,0.3606263475240392,-0.13561247899103557,1.2873967111510307,0.15612861236127007,-0.0067728849434823615,-0.012145471699092905,0.1316024142480372,0.13162917599627175,0.3729705727120911,1.3330059337171258,0.0
1.7623497997329773,0.357891251519248,-0.13675480023956163,1.2904959128581166,0.15496008535429698,-0.00699418829176572,-0.011065167414167928,0.13159636688216356,0.1316234738512213,0.37016773317888907,1.336118802379758,0.0
1.7823765020026703,0.35513238478849296,-0.13794333653775134,1.293571586538504,0.15378368401937206,-0.007193627063652412,-0.00997193859433462,0.13159016491106282,0.1316173925346923,0.3673389139996707,1.339208081067569,0.0
