time,x,x_dot,z,z_dot,theta,theta_dot,u1,u2,x_ref,z_ref,theta_ref
0.0,0.5479120971119267,-0.012224312049589542,1.3585979199113825,0.039473605811872786,-0.1623290608449402,0.09512447032735119,0.057223257588355024,0.05632337594607851,0.5,1.0,0.0
0.020026702269692925,0.5473959467510905,-0.025807518041809897,1.357126792095578,-0.07355639079022372,-0.16114814352234005,0.05904586613000654,0.056323375059594415,0.0703633659855773,0.4999824541392403,1.0041887412073853,0.0
0.04005340453938585,0.5465769119896886,-0.04095173807009627,1.3535890997376787,-0.17688461789496632,-0.14873624220193166,0.6205950660204185,0.08388926604983289,0.0900829348554775,0.4999298177883902,1.0083771884344908,0.0
0.06008010680907877,0.5453451089842491,-0.06159015027197545,1.3486787242308882,-0.2455187753395207,-0.13138587923156844,0.8675181485181619,0.10402946619143674,0.10605654126263024,0.49984209464164997,1.0125650477216688,0.0
0.0801068090787717,0.5436533213210798,-0.08458938315846937,1.3429312932709654,-0.28737154799613507,-0.11244002198002709,0.9472928625770686,0.11269421185951778,0.11216515578166505,0.49971929085573213,1.0167520251505358,0.0
0.10013351134846463,0.5415268714640532,-0.10632249285132932,1.3365723764232877,-0.317945842383884,-0.09394684813754052,0.9246586921243275,0.11908523765327374,0.117279620916832,0.4995614150494292,1.0209378268645999,0.0
0.12016021361815754,0.5390097907961771,-0.12585403339380782,1.3297798415174724,-0.3396267452907638,-0.07692639512228665,0.8510226507626943,0.12474115291651826,0.12244956573777116,0.49936847830300873,1.0251221590898847,0.0
0.14018691588785048,0.5361519176779068,-0.14289365591351072,1.3227206446246569,-0.3529598446407725,-0.061764150505832095,0.7581122308227277,0.12807729468830564,0.1256309648196368,0.499140494157436,1.0293047281555483,0.0
0.1602136181575434,0.5330083478456303,-0.15717849161382322,1.3154967706994076,-0.36119369626246434,-0.048580070372018565,0.6592040066906766,0.13165934672776194,0.12932539929649087,0.4988774786134233,1.0334852405144925,0.0
0.1802403204272363,0.5296296278798293,-0.16893599829005335,1.308220020481664,-0.3638375108871745,-0.037280485973379185,0.5649792199319683,0.13490303191943898,0.13279816386087961,0.49857945013030697,1.0376634027639664,0.0
0.20026702269692925,0.5260621051270349,-0.17837613763971788,1.30099269158992,-0.3613664445872084,-0.027678835413904063,0.4800825279737564,0.13761509380207895,0.1357798900940601,0.4982464296247522,1.0418389216661577,0.0
0.22029372496662217,0.5223476245121247,-0.18572403074550817,1.2939009563771313,-0.3545867606394252,-0.01955664913308096,0.406109314041155,0.13973873716718951,0.13818983526839165,0.4978784404692846,1.0460115041687736,0.0
0.24032042723631508,0.5185233529961102,-0.19121357580072756,1.2870130487069833,-0.3443953835074064,-0.012682680044373005,0.3436984544353977,0.14262277059281764,0.1412922209505004,0.4974755084906501,1.0501808574256075,0.0
0.260347129506008,0.5146210931367332,-0.195112992968849,1.2804181656769034,-0.32974415150399655,-0.006880514754604497,0.2901082644884254,0.14519428691465375,0.14407578614756889,0.4970376619680023,1.0543466888170925,0.0
0.28037383177570097,0.5106688012438911,-0.1976145946421011,1.27419571789936,-0.3111223888771675,-0.001979123353740121,0.24506957004321875,0.147060656105607,0.14612673309846153,0.4965649316309177,1.0585087059708387,0.0
0.30040053404539385,0.5066909511659812,-0.19889250389549837,1.2684034969017617,-0.2896110498799117,0.0021702565573628713,0.20746899555514967,0.14822609673008194,0.1474436621783612,0.49605735065723894,1.0626666167821521,0.0
0.3204272363150868,0.5027087322646117,-0.19911094506847654,1.263077821811676,-0.2662837545042805,0.005689686017677288,0.17597147301572078,0.15062028083877238,0.14996426255965825,0.49551495467074635,1.066820129434536,0.0
0.34045393858477974,0.49874042276044667,-0.19841547520824954,1.2582909177247592,-0.23934520434584677,0.008680993106131416,0.14956535442270638,0.15216773388963967,0.15160438535133636,0.4949377817386579,1.0709689524201722,0.0
0.3604806408544726,0.4948018801947942,-0.19692712828262254,1.254089288584423,-0.2100814570168089,0.011218872417926856,0.126893965589772,0.15284601515345017,0.15238385513408498,0.49432587236895703,1.0751127945603784,0.0
0.38050734312416556,0.490906650040065,-0.1947615077364602,1.2504937422506077,-0.1797773166907625,0.013384736968253095,0.10829322751631196,0.15306018834711965,0.1526653662490344,0.49367926950755014,1.0792513650260465,0.0
0.4005340453938585,0.4870661742245193,-0.19202379077728488,1.2475108172004037,-0.14914625251020172,0.01523282425058285,0.09240436411648786,0.15267568313948499,0.1523371493756646,0.49299801853525244,1.083384373358051,0.0
0.4205607476635514,0.48328999773304426,-0.18880882457375192,1.245129162578131,-0.1190827311136344,0.01680846989749708,0.07878228234571112,0.152062827340681,0.15176709730596047,0.49228216726460267,1.087511529487638,0.0
0.44058744993324434,0.47958607962695804,-0.18519590530431065,1.2433305004496378,-0.08993310642466215,0.018146171987458277,0.06688510449805991,0.15102889124414523,0.15077382380932303,0.4915317659365077,1.09163254375678,0.0
0.4606141522029373,0.4759608843714633,-0.18125976277473926,1.2420840932375954,-0.06232036060211989,0.019278678572611837,0.05662532925767792,0.15010731637328023,0.14987707334545444,0.49074686721671645,1.0957471269385064,0.0
0.48064085447263016,0.4724197861876205,-0.17705490919213906,1.2413623557723306,-0.03608687326324557,0.020226033545532637,0.047367748646040174,0.1489810764444036,0.14877877901895423,0.48992752619212343,1.0998549902572035,0.0
0.5006675567423231,0.4689670707096091,-0.17263577390056972,1.2411317374115647,-0.011530918038299278,0.02101075686749877,0.039236166098306526,0.14790227106019235,0.1477276473718417,0.48907380036690284,1.1039558454088796,0.0
0.520694259012016,0.46560617328605874,-0.1680448711775157,1.2413601421410894,0.011420236476230888,0.021655128871526336,0.03221860020137822,0.146727391147657,0.14656726668017275,0.48818574965847245,1.108049404581401,0.0
0.540720961281709,0.4623397046975846,-0.16332342942370623,1.2420124803697226,0.032616911431657444,0.022170869221958447,0.02578701752160591,0.1454279798143991,0.14528718221853792,0.48726343639328856,1.1121353804746905,0.0
0.5607476635514019,0.4591695435009134,-0.15850805983356317,1.2430500912931388,0.05188054617081534,0.02257354827888657,0.020133952846405886,0.14439868855489307,0.1442656654325714,0.48630692530247177,1.116213486320892,0.0
0.5807743658210948,0.45609714756822667,-0.15361979663433564,1.2444421916210766,0.06960501639688624,0.022869480217330103,0.014796596922176957,0.1433571710676237,0.14322997073680727,0.4853162835172637,1.1202834359044958,0.0
0.6008010680907877,0.4531234572621793,-0.14868451530236776,1.246157644183858,0.08577262813907066,0.02306341164700252,0.009696571483620617,0.1423430315504413,0.14222397751317858,0.48429158056431554,1.1243449435824273,0.0
0.6208277703604806,0.45024895918074515,-0.14372490407170688,1.248166193945848,0.10042748809949775,0.02316194319913952,0.004926577606849726,0.14139339879777255,0.14128255126619163,0.4832328883608088,1.128397724304094,0.0
0.6408544726301736,0.4474737401039463,-0.13876095383994275,1.2504395332470954,0.11366696506237926,0.02317171751286363,0.000488715686205626,0.14047279982574878,0.14036928876830818,0.48214028120940733,1.1324414936313905,0.0
0.6608811748998665,0.44479749895220727,-0.1338120575869518,1.252950235203939,0.12553509784218,0.023098675157366917,-0.003652117774835575,0.13962746508666998,0.1395297818353989,0.48101383579304297,1.1364759677586627,0.0
0.6809078771695595,0.4422196134590473,-0.1288942746579977,1.2556731127588086,0.1361438777434818,0.022947544848352312,-0.007556515450730652,0.1387981154658991,0.1387014158604122,0.47985363116953333,1.1405008635326255,0.0
0.7009345794392524,0.4397391295321121,-0.12402419634676014,1.2585834111020413,0.14551491716164222,0.02271917667369094,-0.011418408733068415,0.1380672772788175,0.1379792684559902,0.4786597487660336,1.144515898472236,0.0
0.7209612817089452,0.4373548469515475,-0.11921412902822665,1.2616594377899881,0.15380133439734428,0.02242058622322023,-0.014929522523535731,0.13739000805922635,0.13730406044313884,0.4774322723733215,1.1485207907885173,0.0
0.7409879839786382,0.4350652916554115,-0.11447776480680044,1.2648810163267816,0.1610789268396795,0.022053480121549857,-0.018355305083518673,0.13683029863213206,0.13675328714246301,0.4761712881399164,1.1525152594043386,0.0
0.7610146862483311,0.43286879500756825,-0.1098248323921634,1.2682315797889026,0.16752817310605,0.02162506390784596,-0.021420810685194972,0.13629032130735785,0.13622051376521427,0.47487688456603344,1.156499023974139,0.0
0.7810413885180241,0.43076343459390887,-0.10526802068297043,1.2716951416974038,0.17317809542506077,0.021141151740133403,-0.024195608385627683,0.13580010998324538,0.13573602746276792,0.47354915249737217,1.1604718049036047,0.0
0.801068090787717,0.4287470854202174,-0.10081745868457401,1.2752571882301587,0.17810232663773898,0.02060637005860618,-0.026739084076361202,0.13535237908295017,0.13528795652625225,0.4721881851187405,1.1644333233692916,0.0
0.82109479305741,0.4268174383016173,-0.09648235593000534,1.2789043923970558,0.18236020834485886,0.020020489604083647,-0.029294022726126606,0.13494563079678537,0.13488859585641896,0.4707940779475151,1.1683833013381941,0.0
0.8411214953271028,0.4249720224295355,-0.09227079360408803,1.282624772240043,0.1860189921493648,0.01938946363968818,-0.031551298219773156,0.13456315436871633,0.13451065802879256,0.46936692882693704,1.1723214615872586,0.0
0.8611481975967957,0.42320819136509125,-0.08819155322221467,1.286407037599647,0.18911326798019606,0.01871696136022573,-0.03362511397312252,0.13423734564459336,0.13418840962746,0.4679068379192454,1.1762475277228392,0.0
0.8811748998664887,0.4215231666264405,-0.08425123693253789,1.290241576123024,0.19172692616884957,0.01800586636809309,-0.035554749606632165,0.13394092964410775,0.133897254695809,0.46641390769864727,1.1801612242000974,0.0
0.9012016021361816,0.4199140362752089,-0.08045651756158029,1.2941196826691788,0.19390532730773766,0.017260420528379283,-0.03727229198569022,0.13367565042289772,0.13363612508386033,0.46488824294412573,1.184062276342339,0.0
0.9212283044058746,0.41837776599688914,-0.07681351391598695,1.2980335679140442,0.1956942622432721,0.01648397301045899,-0.03882237589601475,0.13343807972870855,0.13340230627758037,0.4633299507320861,1.1879504103602934,0.0
0.9412550066755675,0.4169112134599907,-0.07332762684492176,1.3019762658455283,0.19713489657420089,0.015679552013092686,-0.04022104986831539,0.1332207009370919,0.13318835199990917,0.4617391404288412,1.1918253533713281,0.0
0.9612817089452603,0.4155111369455272,-0.07000382572317362,1.3059414107829759,0.1982572468723759,0.014849921294861866,-0.04148153591154085,0.13302015166826986,0.13299147727733412,0.4601159236829352,1.1956868334186013,0.0
0.9813084112149533,0.41417420520769743,-0.0668465868914898,1.309923145254408,0.1990867235716022,0.013998042307821283,-0.042593949352029016,0.13285554698699673,0.13282998586417114,0.4584604144173082,1.1995345794901475,0.0
1.0013351134846462,0.4128970159891291,-0.06385946092841803,1.3139166733601229,0.19967640528574793,0.013126424961026206,-0.04358086733975367,0.13271123792958225,0.13268926554909244,0.45677272882130043,1.2033683215379,0.0
1.0213618157543392,0.4116760992568832,-0.06104583661229466,1.3179178109852503,0.2000568812563734,0.01223795739904953,-0.04442337809883407,0.056323380171635865,0.05749132931480881,0.45505298534249783,1.2071877904966422,0.0
1.041388518024032,0.41047849595997604,-0.05988016484535733,1.319681076769437,0.0881632892093332,0.012284591131848793,0.002331686639963311,0.05632338082639869,0.05654610097220212,0.45330130467841884,1.2109927183028915,0.0
1.061415220293725,0.4093024159271571,-0.05880400164094751,1.3191947968602908,-0.024313995457303145,0.012509363587123458,0.011238622763733105,0.0563233749475646,0.05637284757173871,0.4515178097680436,1.2147828379137142,0.0
1.081441922563418,0.40814784614187977,-0.05772848926386713,1.3164583784284234,-0.13682092159336806,0.012773531817608732,0.013208411524263684,0.06586113338327489,0.06577860423428633,0.44970262578318554,1.2185578833254664,0.0
1.101468624833111,0.4070187325301771,-0.05645568058513255,1.3117545399678239,-0.23519192302997055,0.012971462605233105,0.009896539381218481,0.08744546315369119,0.08724612441313083,0.44785588011970645,1.2223175895924638,0.0
1.1214953271028039,0.40592379799269596,-0.05474672687405901,1.3057231871499992,-0.3015676408912298,0.013009762491842531,0.0019149943304714138,0.10520140357673631,0.10492853641403029,0.4459777023885754,1.2260616928455754,0.0
1.1415220293724968,0.4048703873774968,-0.052670530759958034,1.2988909125399806,-0.341613730500932,0.012829737949863385,-0.009001227098957397,0.11954778225369199,0.11925149409923846,0.44406822440677224,1.229789930310744,0.0
1.1615487316421895,0.4038641349909576,-0.050312619326962855,1.291683460682499,-0.36037259287408213,0.012412828204146149,-0.020845487285861726,0.13091735166395171,0.13062774997506843,0.44212758018803616,1.2335020403274277,0.0
1.1815754339118825,0.40290869108444033,-0.04777219532586338,1.2844382961893408,-0.36225822465790514,0.011764577607795404,-0.03241252981753723,0.1397216283799941,0.13945584747972584,0.4401559059334601,1.2371977623669645,0.0
1.2016021361815754,0.40200562849916804,-0.04515312926361393,1.2774166896810772,-0.35108032541318235,0.010904237745524082,-0.04301699311356612,0.1463378858290064,0.1461048747069985,0.4381533400219318,1.2408768370508576,0.0
1.2216288384512684,0.40115451277535186,-0.0425557861908099,1.2708148743450085,-0.3300907668034348,0.009858206933895825,-0.05230154058141287,0.15111032781294217,0.15091385853601055,0.43612002300042185,1.244539006168978,0.0
1.2416555407209613,0.400353093868246,-0.04007094535529155,1.2647742646305489,-0.30203048572297775,0.008655881378559344,-0.06011627776682413,0.1543482677468901,0.15418864062066448,0.4340560975741196,1.2481840126976884,0.0
1.2616822429906542,0.3995975717527793,-0.03777610577333431,1.2593906548039957,-0.2691804913276541,0.007326873898435446,-0.06645037400619497,0.15632544380278518,0.15620111170095774,0.43196170859641764,1.2518116008178803,0.0
1.2817089452603472,0.3988828947765576,-0.03573384881108638,1.2547223721509881,-0.23341413265037886,0.005899534681084805,-0.07136696086753191,0.1572825249696559,0.1571908655874096,0.42983700305874556,1.2554215159329298,0.0
1.3017356475300401,0.3982030591605708,-0.033991780799339115,1.2507974459893518,-0.1962463080818176,0.004400091395868255,-0.07497216426082758,0.15742903472219516,0.1573669026650395,0.4276821300802533,1.2590135046865651,0.0
1.321762349799733,0.39755138890155406,-0.03258351295083682,1.2476198475047664,-0.15887992422926944,0.0028522320086105135,-0.07739296936288713,0.1569484834581068,0.1569127458634082,0.4254972408973459,1.262587314980648,0.0
1.341789052069426,0.3969207839938231,-0.031530245386548326,1.2451749543683197,-0.12224465682233195,0.0012771167020702405,-0.07875576532701363,0.15598674979679386,0.15597407821914086,0.4232824888530689,1.266142695992867,0.0
1.361815754339119,0.39630392923588015,-0.03084273789714778,1.2434338871691226,-0.08705335995985566,-0.00030677652227321207,-0.07919466121717261,0.15468395280527297,0.15469125537577935,0.42103802938634616,1.2696793981943417,0.0
1.3818424566088119,0.395693466991637,-0.03052311221215852,1.2423576741412587,-0.053810651393193985,-0.0018834602342808775,-0.07883418560038326,0.15313317713445782,0.15315729906610473,0.4187640200210709,1.2731971733671346,0.0
1.4018691588785048,0.39508213128967057,-0.030566785098321572,1.2419000118184418,-0.022883116140845407,-0.0034394856407569223,-0.07780127032380228,0.15144301306029936,0.15148166210053082,0.4164606203550497,1.276695774621672,0.0
1.4218958611481975,0.39446285079358884,-0.03096402480408637,1.24201049461086,0.005524139620917228,-0.004963250183581063,-0.076188227141207,0.14967744032398755,0.14972831750766355,0.4141279920488021,1.2801749564140723,0.0
1.4419225634178905,0.3938288250114887,-0.03170128910500716,1.2426365008568794,0.0313003123009639,-0.0064450011407760684,-0.07408754785975023,0.14789116787293033,0.14795209104276605,0.4117662988142137,1.283634474563378,0.0
1.4619492656875834,0.3931735758898103,-0.03276245608391987,1.243724793098927,0.05441461210238666,-0.007876740391434043,-0.07158696253289874,0.14613145319485893,0.14620071158377917,0.40937570640304727,1.287074086268695,0.0
1.4819759679572764,0.3924909721427688,-0.034130187352075576,1.2452229163461845,0.07490616236287048,-0.009251845601279935,-0.06875526049229476,0.14443313682960865,0.14450921618178597,0.4069563825953091,1.2904935501262298,0.0
1.5020026702269693,0.39177524238718014,-0.035786487779431435,1.2470802371012824,0.09286603775488882,-0.010564911666212665,-0.06565330324663625,0.14282225084989492,0.14290383069509174,0.4045084971874737,1.2938926261462367,0.0
1.5220293724966623,0.39102097989117374,-0.03771312480032143,1.2492487219460475,0.10842424223826258,-0.011811594492723424,-0.062334141325537926,0.1773121790884904,0.1772699319976298,0.4020322219805673,1.2972710757698567,0.0
1.5420560747663552,0.3902118929038604,-0.040454349365667,1.2527480480047735,0.17496630293629184,-0.01309101545069784,-0.06397104789872093,0.16696614195966547,0.16704573333530306,0.3995277307681099,1.3006286618858631,0.0
1.5620827770360481,0.38934512318580583,-0.04333848590272817,1.2572720507722246,0.22620013837255504,-0.014305674346814507,-0.06073294480583313,0.15811867466569643,0.15822367296801307,0.3969951993239177,1.3039651488473027,0.0
1.582109479305741,0.3884178565978535,-0.04636332939761658,1.2625577525088558,0.26428508683156404,-0.015435303920100256,-0.05648147866428763,0.15063826168841882,0.15075361948231206,0.39443480538976705,1.3072803024880322,0.0
1.602136181575434,0.3874276572814501,-0.049509965820167444,1.268382699093429,0.29124732922866253,-0.016471692570996774,-0.05181943254482581,0.144389402196609,0.14450674044541578,0.39184672866291986,1.3105738901391553,0.0
1.622162883845127,0.3863724245530654,-0.052761636419235314,1.2745610420693927,0.3089171487981872,-0.017413338598302505,-0.047082301365286655,0.13925041017134773,0.13936544020873665,0.3892311507835117,1.3138456806453502,0.0
1.64218958611482,0.38525031439132873,-0.056105508086834247,1.280939975675477,0.3189466803042119,-0.018262171851801994,-0.0424416626749742,0.13508992812026843,0.13520058362487897,0.38658825532180363,1.3170954443810947,0.0
1.6622162883845129,0.38405966785299844,-0.05953232691651296,1.2873958503041039,0.3227937314313428,-0.019021772846202073,-0.037980049720003815,0.13178703373147524,0.13189254855771357,0.3839182277652987,1.3203229532667808,0.0
1.6822429906542056,0.3827989517550453,-0.06303580489765746,1.293830577785211,0.3217363740553641,-0.019696331243435786,-0.03372791986168548,0.1292252278790671,0.12932548464529897,0.38122125550572394,1.3235279807847222,0.0
1.7022696929238985,0.38146671865177967,-0.06661165516328071,1.3001681577449604,0.31687899798746433,-0.020290126398065315,-0.029689757731476626,0.12729973436745207,0.12739500958591396,0.37849752782587825,1.3267103019950528,0.0
1.7222963951935915,0.3800615819572073,-0.07025683472861737,1.306351549511877,0.3091695883458211,-0.020807212251542473,-0.025854292673857887,0.12591007923393738,0.12600070917217443,0.37574723588634806,1.329869693551513,0.0
1.7423230974632844,0.3785822079797838,-0.07396869887117473,1.3123396696929694,0.2994060090546248,-0.021251369800338486,-0.02220787743980055,0.12496812594275913,0.12505446291241362,0.3729705727120911,1.3330059337171258,0.0
1.7623497997329773,0.3770273173506405,-0.07774453145716549,1.3181047585210293,0.2882544414029923,-0.02162609456315579,-0.01873623814086528,0.12439026971550346,0.12447268185548231,0.37016773317888907,1.336118802379758,0.0
1.7823765020026703,0.37539569711280235,-0.08158101189190585,1.3236298843655103,0.27625629222404874,-0.021934584222069543,-0.015424482945687792,0.12411220202194373,0.12419096795699254,0.3673389139996707,1.339208081067569,0.0
