time,x,x_dot,z,z_dot,theta,theta_dot,u1,u2,x_ref,z_ref,theta_ref
0.0,0.1462613138950113,0.005698229034040561,1.263650239801926,0.062338553401921404,0.004091542080289472,0.055867934479557485,0.05632337500874896,0.05710465386007809,0.5,1.0,0.0
0.020026702269692925,0.1463820570673521,0.006037158617040482,1.2626563522012961,-0.04969438003149558,0.005832979589080742,0.08707187543956353,0.056323374936579636,0.06927222358758285,0.4999824541392403,1.0041887412073853,0.0
0.04005340453938585,0.14651031182069874,0.0064127376673319934,1.2596039594820634,-0.15261963596163197,0.017931965363976635,0.6049492887447945,0.06219380626075748,0.06728418069437046,0.4999298177883902,1.0083771884344908,0.0
0.06008010680907877,0.14664963701073935,0.006966259502031511,1.2545525414573098,-0.25257090123768156,0.0340874180201403,0.8077726328081836,0.09415471149970656,0.09520576498594012,0.49984209464164997,1.0125650477216688,0.0
0.0801068090787717,0.14683912514913958,0.009474406920011422,1.248391074996297,-0.30807332305063817,0.05106023943063707,0.8486410705248383,0.11558588700647351,0.11415506824524703,0.49971929085573213,1.0167520251505358,0.0
0.10013351134846463,0.14714441141057746,0.015264313071893711,1.2417176494794786,-0.33367127584092315,0.06686346937916174,0.7901614974262324,0.13330791944407705,0.1306308471228172,0.4995614150494292,1.0209378268645999,0.0
0.12016021361815754,0.14764894107131907,0.025226483037080315,1.2350364537664387,-0.3340597856519946,0.08050267662962808,0.6819603625233172,0.14772195653846285,0.14452957880356912,0.49936847830300873,1.0251221590898847,0.0
0.14018691588785048,0.1484422118081125,0.039663536839671776,1.2287623712698956,-0.3137041248271525,0.09156986675275536,0.5533595061563636,0.15630005740064648,0.15301451616908562,0.499140494157436,1.0293047281555483,0.0
0.1602136181575434,0.14960314747304987,0.05804678324686829,1.2231424926239391,-0.2809939322978243,0.09999503179809173,0.42125825226681896,0.16442665277223914,0.16134877145120347,0.4988774786134233,1.0334852405144925,0.0
0.1802403204272363,0.1512042144301725,0.08005334785613222,1.218414482220721,-0.23640052016090576,0.10594839970941863,0.2976683955663463,0.16932521791330563,0.16648870478970815,0.49857945013030697,1.0376634027639664,0.0
0.20026702269692925,0.1533003296077581,0.10480575887927923,1.2147213674277801,-0.18465573964704102,0.10962641693732654,0.18390086139539355,0.17122226169468918,0.16869403382150025,0.4982464296247522,1.0418389216661577,0.0
0.22029372496662217,0.1559269488771525,0.13133096346971948,1.2121193942686033,-0.13009865795884495,0.11127838202108944,0.08259825418814586,0.17115147871299896,0.16893977316231054,0.4978784404692846,1.0460115041687736,0.0
0.24032042723631508,0.15910231325930949,0.15876821910784977,1.2106080311590692,-0.07556815547669765,0.11115955434700824,-0.005941383704059791,0.16749633894527982,0.16570319933572966,0.4974755084906501,1.0501808574256075,0.0
0.260347129506008,0.16282286002653817,0.18602733836143454,1.2100838479853124,-0.026209158687839136,0.10960631062235238,-0.0776621862327938,0.162257008528553,0.16082661558675998,0.4970376619680023,1.0543466888170925,0.0
0.28037383177570097,0.16707083290981198,0.21239864416368975,1.210397045840378,0.015659892753285484,0.10691009302222133,-0.13481088000655253,0.156810862074151,0.15567356353484132,0.4965649316309177,1.0585087059708387,0.0
0.30040053404539385,0.17182107962041415,0.23751233553010848,1.211391558758247,0.049725645893439974,0.1033064876553171,-0.18018026834520984,0.15163241373363714,0.15072954150609041,0.49605735065723894,1.0626666167821521,0.0
0.3204272363150868,0.1770445891714672,0.2611754775526527,1.2129189442899513,0.0763692765852243,0.09898399151932284,-0.21612480679971408,0.1470189600703678,0.14630887516449645,0.49551495467074635,1.066820129434536,0.0
0.34045393858477974,0.18271091314695015,0.28331619877414665,1.2148472049827972,0.09641303464229559,0.09409763812123467,-0.24431766990440798,0.14288602370308257,0.14233122650437802,0.4949377817386579,1.0709689524201722,0.0
0.3604806408544726,0.1887889157803304,0.3039001316690127,1.217058218971426,0.11055069943144724,0.08877231640339821,-0.2662660858918233,0.1401664836218663,0.13972113406190265,0.49432587236895703,1.0751127945603784,0.0
0.38050734312416556,0.19525008233408714,0.32305832768783643,1.2194750316720309,0.12084063503024328,0.08309611470876502,-0.28381008473165975,0.13721649963527827,0.13688449297610916,0.49367926950755014,1.0792513650260465,0.0
0.4005340453938585,0.2020643064797047,0.34071120728087717,1.222014009549056,0.1269488938512493,0.07716014169744191,-0.29679865056615506,0.13490022231136561,0.1346636079307685,0.49299801853525244,1.083384373358051,0.0
0.4205607476635514,0.20920256290385525,0.35691282120752826,1.224609976257565,0.1297983354254581,0.0710410387258429,-0.3059551485799502,0.13321484647545678,0.13305150438476612,0.49228216726460267,1.087511529487638,0.0
0.44058744993324434,0.21663701058780893,0.37172238419768405,1.2272160272600936,0.13030255012642553,0.06479765754719988,-0.31216905893215163,0.13194917925978317,0.13184755311618807,0.4915317659365077,1.09163254375678,0.0
0.4606141522029373,0.22434056997164994,0.38517796919205033,1.2297974143353885,0.12906935376474557,0.05847953093536074,-0.3159063305919559,0.13100660982475978,0.1309566606309656,0.49074686721671645,1.0957471269385064,0.0
0.48064085447263016,0.2322867626943157,0.39730963613328824,1.2323286900702601,0.1265637867435815,0.05212809701614295,-0.31757169596088947,0.13044653194416952,0.1304402778402716,0.48992752619212343,1.0998549902572035,0.0
0.5006675567423231,0.24044984171605308,0.4081539510868692,1.2347954791935196,0.12333945616297837,0.04577835469022344,-0.31748711629597576,0.1302430806132814,0.13027839177257683,0.48907380036690284,1.1039558454088796,0.0
0.520694259012016,0.24880470711567335,0.41774326998101297,1.2371937881153714,0.11991544609259151,0.03946355328507007,-0.3157400702576689,0.1302352864944938,0.13029231613403916,0.48818574965847245,1.108049404581401,0.0
0.540720961281709,0.2573266112637104,0.4260952074018531,1.239524969141161,0.1165590512894809,0.03320102159154117,-0.31312658467644483,0.13043662057159094,0.13051518798682193,0.48726343639328856,1.1121353804746905,0.0
0.5607476635514019,0.26599121088148314,0.4332299808886363,1.2417964041293748,0.11357174941069367,0.02700792139499369,-0.30965500982737365,0.13073194984954417,0.1308226662462771,0.48630692530247177,1.116213486320892,0.0
0.5807743658210948,0.27477440078122983,0.43915949498733414,1.2440179558657012,0.1110775868163173,0.02089388158369851,-0.3057019905647593,0.1311878383308564,0.13130003913997054,0.4853162835172637,1.1202834359044958,0.0
0.6008010680907877,0.28365239436386885,0.4438996791319511,1.246204216405094,0.10931302696963653,0.0148759872330257,-0.30089471753364033,0.1317099533804526,0.1318401246127964,0.48429158056431554,1.1243449435824273,0.0
0.6208277703604806,0.2926016117018201,0.4474608668975626,1.24837152173718,0.10836526660429976,0.008968490900007599,-0.295374816650905,0.13224855901350407,0.1323953414317467,0.4832328883608088,1.128397724304094,0.0
0.6408544726301736,0.301598694914599,0.4498541606389464,1.2505365115453153,0.10824949040676045,0.0031845403900408764,-0.2891975254983361,0.1327971868627669,0.13295786668676698,0.48214028120940733,1.1324414936313905,0.0
0.6608811748998665,0.3106205596152183,0.45109323503096516,1.2527159215445962,0.10897049996404731,-0.0024649030872635584,-0.2824721738652217,0.13332544601645804,0.13349940545059286,0.48101383579304297,1.1364759677586627,0.0
0.6809078771695595,0.3196444457548619,0.4511943069821794,1.2549257196177326,0.11048990365681484,-0.007969385034988275,-0.2752240973862359,0.13382403353572817,0.13400946677399192,0.47985363116953333,1.1405008635326255,0.0
0.7009345794392524,0.3286479788344938,0.45017665398159484,1.257180820300007,0.1127550341137245,-0.01331990708120366,-0.2675261023107691,0.13427663954418192,0.13447326820276487,0.4786597487660336,1.144515898472236,0.0
0.7209612817089452,0.33760923676883836,0.4480628967172281,1.259494633340644,0.11569065203185386,-0.018507702911225856,-0.25938979150110975,0.13470054751675564,0.13490587322124914,0.4774322723733215,1.1485207907885173,0.0
0.7409879839786382,0.3465068077948093,0.4448785512985457,1.2618795536218317,0.11924601405938565,-0.023526013622468957,-0.250915535562155,0.13506383783300688,0.13527793192433507,0.4761712881399164,1.1525152594043386,0.0
0.7610146862483311,0.3553198620202427,0.4406527112716685,1.2643460645421418,0.12332554601550268,-0.02836802923114294,-0.24210078043369876,0.13537163709758931,0.13559308401959966,0.47487688456603344,1.156499023974139,0.0
0.7810413885180241,0.36402820804492675,0.4354173012342021,1.266902880657261,0.12784080575596693,-0.0330280779619584,-0.2330024365407736,0.1356195536171126,0.1358484828062615,0.47354915249737217,1.1604718049036047,0.0
0.801068090787717,0.3726123521548153,0.4292072054944286,1.2695568536546968,0.13269864987178961,-0.03750038864897777,-0.22361553435096873,0.13594701002111198,0.13617273278203518,0.4721881851187405,1.1644333233692916,0.0
0.82109479305741,0.38105341848563046,0.4220533165407583,1.2723169545914468,0.13800504683749656,-0.04178774502221177,-0.21436781866169985,0.13604426608404166,0.1362816624859498,0.4707940779475151,1.1683833013381941,0.0
0.8411214953271028,0.3893334751120631,0.4140028313216329,1.2751854887104401,0.1434267059496723,-0.045881020877397885,-0.20466379275930566,0.13611919016984464,0.13635959675029552,0.46936692882693704,1.1723214615872586,0.0
0.8611481975967957,0.3974353689597065,0.405094692382168,1.278163921326804,0.1489216308181844,-0.049778028262531984,-0.19485036925670474,0.13608220988603628,0.13633149729365243,0.4679068379192454,1.1762475277228392,0.0
0.8811748998664887,0.4053428840960471,0.39537575681702936,1.2812504543983863,0.15432665357912187,-0.053471882163421906,-0.18469269504449676,0.13607334867954074,0.13632262810992793,0.46641390769864727,1.1801612242000974,0.0
0.9012016021361816,0.4130405922031955,0.3848854053574222,1.2844439675396393,0.15967565706265682,-0.05696281301521534,-0.17454654258967095,0.13610689939403542,0.1363620640088304,0.46488824294412573,1.184062276342339,0.0
0.9212283044058746,0.42051383554002575,0.3736621668415123,1.2877446691332166,0.16503507967887115,-0.060246333210470335,-0.16417600976275015,0.13605659410094403,0.13631119590136045,0.4633299507320861,1.1879504103602934,0.0
0.9412550066755675,0.42774893298238187,0.3617548721178067,1.2911501852416711,0.17027580542272716,-0.06332311498710466,-0.15383908883171685,0.13595166332110895,0.1362060143325345,0.4617391404288412,1.1918253533713281,0.0
0.9612817089452603,0.4347331639022496,0.3492115459933852,1.294656538202572,0.1753176480450438,-0.06619357682893025,-0.14352309209127925,0.13579839988284306,0.13605996440902673,0.4601159236829352,1.1956868334186013,0.0
0.9813084112149533,0.4414547587490463,0.33607974233983756,1.2982584491864742,0.18009554919510673,-0.06885216196041585,-0.13292925657427984,0.1356219992888935,0.1358796464866645,0.4584604144173082,1.1995345794901475,0.0
1.0013351134846462,0.4479028735035253,0.32240573772394837,1.3019498178404096,0.1845684326967699,-0.07130222047106467,-0.12250292553244148,0.1353914602165423,0.13564575344682067,0.45677272882130043,1.2033683215379,0.0
1.0213618157543392,0.4540676651420206,0.3082395819247669,1.3057229885546697,0.18865853571300836,-0.07354664484985016,-0.11222121893927406,0.06100672469948665,0.056323374906647586,0.45505298534249783,1.2071877904966422,0.0
1.041388518024032,0.46010190840687964,0.30171216324295114,1.3073058568682379,0.07914341567840559,-0.07953574207198709,-0.2994548611068467,0.05969880938452487,0.05632337492072049,0.45330130467841884,1.2109927183028915,0.0
1.061415220293725,0.466003517009296,0.2950804301208182,1.3066812644683945,-0.031229619992167362,-0.08821891188075458,-0.43415849043837484,0.05753859273984877,0.0563233749064044,0.4515178097680436,1.2147828379137142,0.0
1.081441922563418,0.4717649804055104,0.28807316981072045,1.3038188313646,-0.14312165518972148,-0.09786425635647082,-0.48226722378581177,0.056323451652901785,0.05634001364670654,0.44970262578318554,1.2185578833254664,0.0
1.101468624833111,0.47737329776742804,0.2804158680958813,1.2987020224905705,-0.25584044370147324,-0.10748491427133394,-0.4810328957431563,0.08323093235100777,0.08393487595928022,0.44785588011970645,1.2223175895924638,0.0
1.1214953271028039,0.4827334482630018,0.26800752477868645,1.2921355414671334,-0.32832405117185404,-0.1165310445529323,-0.45230651407991784,0.10604101198619334,0.10750369970621378,0.4459777023885754,1.2260616928455754,0.0
1.1415220293724968,0.4877481056131424,0.25073286750703144,1.28480190829431,-0.3666816586411643,-0.12439656233341598,-0.3932758890241837,0.12509429030035224,0.12696975158275106,0.44406822440677224,1.229789930310744,0.0
1.1615487316421895,0.4923227936010783,0.2287343993967929,1.2772657041340565,-0.37681020801267995,-0.13075299043010732,-0.31782140483456545,0.13935183253022942,0.14139403681965923,0.44212758018803616,1.2335020403274277,0.0
1.1815754339118825,0.496376152036616,0.2026679217768849,1.269945245285337,-0.3660229424359755,-0.13546898679112457,-0.23579981805086284,0.14953265130876783,0.15156532212425336,0.4401559059334601,1.2371977623669645,0.0
1.2016021361815754,0.49984332031480616,0.17335841390950735,1.2631357271151011,-0.34047590851179876,-0.13855420216101325,-0.15426076849443354,0.15614157413036292,0.15806975233827547,0.4381533400219318,1.2408768370508576,0.0
1.2216288384512684,0.5026779763488468,0.1417328017020343,1.2570260720602604,-0.30548275274203895,-0.14009403339156598,-0.07699156152763496,0.15999783683132346,0.1617625493411086,0.43612002300042185,1.244539006168978,0.0
1.2416555407209613,0.5048512491142606,0.10866363827069019,1.2517240894470845,-0.26509913065879936,-0.14022076957983667,-0.0063368094135373,0.16166948586888125,0.16324791282422646,0.4340560975741196,1.2481840126976884,0.0
1.2616822429906542,0.5063501334377553,0.07494421617473455,1.2472739953717773,-0.22250470376536005,-0.13908466218254165,0.05680536986475336,0.16172195031270328,0.16310902164770053,0.43196170859641764,1.2518116008178803,0.0
1.2817089452603472,0.5071749602949597,0.04124134286021991,1.2436733758926093,-0.18003097395839712,-0.1368398589488852,0.11224016168282258,0.16064771540653228,0.16184786112172161,0.42983700305874556,1.2554215159329298,0.0
1.3017356475300401,0.5073366392822706,0.008083949365546697,1.2408877442811967,-0.1392815805706325,-0.1336369389703625,0.16014599892613518,0.1587653461777353,0.15978922853806868,0.4276821300802533,1.2590135046865651,0.0
1.321762349799733,0.5068543923744954,-0.0241123453887623,1.238859862978339,-0.10139406514289301,-0.12961788998882065,0.20095244907708915,0.1563760056835689,0.1572326426417145,0.4254972408973459,1.262587314980648,0.0
1.341789052069426,0.5057535334268786,-0.05504294738083789,1.2375184022660535,-0.06707303561427111,-0.12491739832486125,0.235024583197973,0.15378168947943827,0.15449056576039977,0.4232824888530689,1.266142695992867,0.0
1.361815754339119,0.5040633233346473,-0.08451050461156123,1.236786793304379,-0.03658044808372203,-0.11965445607916507,0.2631471122848086,0.1511261262440507,0.15170382991173512,0.42103802938634616,1.2696793981943417,0.0
1.3818424566088119,0.5018156206719279,-0.1123851331359745,1.2365872352859562,-0.009977900921140648,-0.11393467559605167,0.2859890241556689,0.14856290643879766,0.14902211836692164,0.4187640200210709,1.2731971733671346,0.0
1.4018691588785048,0.49904366025536,-0.13859802082839348,1.2368449997373605,0.012888222570212986,-0.10785341603963922,0.3040629778206226,0.14614311591896267,0.1464962992760625,0.4164606203550497,1.276695774621672,0.0
1.4218958611481975,0.4957813418155634,-0.16311592198983232,1.2374898192989814,0.03224097808103907,-0.10149595929827668,0.31787283706812625,0.14393073272072676,0.14418954850168553,0.4141279920488021,1.2801749564140723,0.0
1.4419225634178905,0.4920625924179404,-0.185937469881149,1.238457683835552,0.048393226828535585,-0.09493815677187457,0.3278901263201052,0.14196305684719382,0.14213819103792555,0.4117662988142137,1.283634474563378,0.0
1.4619492656875834,0.4879209355821348,-0.20708284179028139,1.2396918724125712,0.06170942885095661,-0.08824721633834326,0.3345470216765669,0.14026800826300093,0.1403691224942854,0.40937570640304727,1.287074086268695,0.0
1.4819759679572764,0.48338918703834793,-0.22658742718934125,1.2411437247879198,0.07259261876743459,-0.08148252983002048,0.33823432541613846,0.1388253376516652,0.13886056500327257,0.4069563825953091,1.2904935501262298,0.0
1.5020026702269693,0.4784993603494214,-0.24449133444632676,1.2427719964360047,0.0814135824042423,-0.07469690427361163,0.3392812778204417,0.13762612325225257,0.13760273309886284,0.4045084971874737,1.2938926261462367,0.0
1.5220293724966623,0.47328257896993986,-0.2608390689740775,1.2445425658568672,0.08852847104312572,-0.06793726069796929,0.3379821787821161,0.18880227467309268,0.18339090029314217,0.4020322219805673,1.2972710757698567,0.0
1.5420560747663552,0.46765962679995127,-0.28114760849942844,1.2478899258115428,0.16736799773378003,-0.06551385314831518,0.12117037748270684,0.17098850948978433,0.16993966754576129,0.3995277307681099,1.3006286618858631,0.0
1.5620827770360481,0.46169977203661267,-0.2979927381669292,1.2523528680960518,0.22314711422545236,-0.06393169033213854,0.0791081408088322,0.1610942956084889,0.16088153535287106,0.3969951993239177,1.3039651488473027,0.0
1.582109479305741,0.4554341817693445,-0.31327951336340737,1.2576506902163962,0.26489110601721266,-0.06252110136720979,0.07052944824643746,0.15249792094289338,0.15273499044276978,0.39443480538976705,1.3072803024880322,0.0
1.602136181575434,0.4488867601494577,-0.32737108099434065,1.2635352662722692,0.2942288027936513,-0.06092206505265857,0.07995181572756112,0.14534914222343387,0.1457932487145694,0.39184672866291986,1.3105738901391553,0.0
1.622162883845127,0.44207739035275245,-0.34046848983526257,1.269797855938685,0.31312948332079726,-0.05896912550512244,0.09764697737680643,0.1394262599674178,0.1399398539573147,0.3892311507835117,1.3138456806453502,0.0
1.64218958611482,0.4350240021908352,-0.35266940809586156,1.2762641971601443,0.3233170610729571,-0.0566070264597167,0.1181049522702873,0.13464041680569033,0.13515228395702208,0.38658825532180363,1.3170954443810947,0.0
1.6622162883845129,0.42774339763983166,-0.3640302275501781,1.282792871815688,0.3264337327771893,-0.05383754769529769,0.13847393822095014,0.13086970290763383,0.13134380669437476,0.3839182277652987,1.3203229532667808,0.0
1.6822429906542056,0.42025168472358687,-0.3745856458122394,1.2892721921066734,0.3239660145492759,-0.050691309739498064,0.1573118977899813,0.12801883239992304,0.12843567510503595,0.38122125550572394,1.3235279807847222,0.0
1.7022696929238985,0.4125644857701261,-0.38435994767303916,1.2956175830855041,0.31726954894153064,-0.04721451221293653,0.17383987632807615,0.12587172671075975,0.12622074409591516,0.37849752782587825,1.3267103019950528,0.0
1.7222963951935915,0.4046972656214641,-0.3933610074331008,1.3017652737037435,0.30738453091196766,-0.043461767428624606,0.18763723921559633,0.12437649699684304,0.12465834400969886,0.37574723588634806,1.329869693551513,0.0
1.7423230974632844,0.3966653524638889,-0.4015956578787592,1.307670884527954,0.2952805412105331,-0.039487112141221664,0.19873276437014684,0.1234405191185801,0.12365845498085198,0.3729705727120911,1.3330059337171258,0.0
1.7623497997329773,0.3884840162352529,-0.40906681143179924,1.3133066845284553,0.28179000002506505,-0.035341921180700536,0.20725954802605692,0.1229735111974686,0.12313198627373687,0.37016773317888907,1.336118802379758,0.0
1.7823765020026703,0.38016854332028455,-0.4157736457484189,1.3186589015633225,0.2676108517433609,-0.03107395470537219,0.21339832376641704,0.12289145545211963,0.12299542166025688,0.3673389139996707,1.339208081067569,0.0
