time,x,x_dot,z,z_dot,theta,theta_dot,u1,u2,x_ref,z_ref,theta_ref
0.0,0.8112085533806241,-0.08455464135765137,0.7725697559186377,0.024370096449226608,0.17361136331574561,-0.0830106426122447,0.29356014409497894,0.29668288667479986,0.5,1.0,0.0
0.020026702269692925,0.8110294347204015,-0.008955933011136966,0.7777496242981902,0.2589934189776189,0.17445078294987568,0.04197098170650075,0.29668288661887077,0.2453009725004407,0.4999824541392403,1.0041887412073853,0.0
0.04005340453938585,0.8122374977637543,0.06040315216764472,0.786912962487627,0.45816690947184113,0.13418398605055534,-2.0133398449660143,0.0563233749048854,0.05858194573297282,0.4999298177883902,1.0083771884344908,0.0
0.06008010680907877,0.813739611498323,0.07510568672843157,0.7938220458272035,0.3454541669788283,0.09581965069409808,-1.9182167678228645,0.1924270913759129,0.18456240022154657,0.49984209464164997,1.0125650477216688,0.0
0.0801068090787717,0.8159872733281193,0.11238309148981375,0.8023384725961453,0.4258213384470917,0.05125775637255435,-2.2280947160771865,0.1546136405864941,0.15591331669567715,0.49971929085573213,1.0167520251505358,0.0
0.10013351134846463,0.8186724795585038,0.1342603115192269,0.8115043821587726,0.45829547813136284,0.007849650779890244,-2.1704052796332056,0.17830071839920994,0.1819411953261868,0.4995614150494292,1.0209378268645999,0.0
0.12016021361815754,0.8216279503831326,0.14777354123144598,0.8220693649797007,0.5282491410464061,-0.03253871966042557,-2.0194185220157905,0.19009648460561118,0.19612636612506726,0.49936847830300873,1.0251221590898847,0.0
0.14018691588785048,0.8246246737294448,0.14983616731560728,0.8344229033852312,0.6176769202765229,-0.06800955926399341,-1.7735419801783905,0.20107102495087942,0.20808026133800078,0.499140494157436,1.0293047281555483,0.0
0.1602136181575434,0.8274202772808877,0.13978017757214764,0.8488985694826737,0.7237833048721302,-0.09779783305332129,-1.4894136894663954,0.20953046928744903,0.2169955390753813,0.4988774786134233,1.0334852405144925,0.0
0.1802403204272363,0.8297825810530802,0.11811518860962253,0.8657384144201713,0.8419922468748807,-0.12155737617422162,-1.1879771560450187,0.2121943780770223,0.21966130222260682,0.49857945013030697,1.0376634027639664,0.0
0.20026702269692925,0.8315166880634134,0.08670535051665623,0.8850006236029422,0.9631104591385415,-0.13930347770912777,-0.8873050767453083,0.20325686788579506,0.20967318497936419,0.4982464296247522,1.0418389216661577,0.0
0.22029372496662217,0.8325062711550042,0.049479154579538734,0.9063848630222223,1.0692119709640073,-0.1518905399637555,-0.6293531127313834,0.1897118363785934,0.19505694262853784,0.4978784404692846,1.0460115041687736,0.0
0.24032042723631508,0.8327027123569584,0.009822060097706656,0.9294587433805299,1.1536940179153785,-0.16018544893798692,-0.41474544871156915,0.17305168958244888,0.17731304164628797,0.4974755084906501,1.0501808574256075,0.0
0.260347129506008,0.832113441790859,-0.02946352830497015,0.9537036959917188,1.2122476305594436,-0.16506200539471866,-0.24382782283658602,0.1534547741149581,0.15678840117212414,0.4970376619680023,1.0543466888170925,0.0
0.28037383177570097,0.8307921152486307,-0.06606632711141458,0.9785230864052419,1.2409695206761537,-0.16726683943901394,-0.11024170221476581,0.13580036732052503,0.13835710123857206,0.4965649316309177,1.0585087059708387,0.0
0.30040053404539385,0.8288057850127073,-0.09931651179617065,1.0033843339811357,1.243062378794688,-0.16742433300156462,-0.007874678127536061,0.12287833964032145,0.1247607271380571,0.49605735065723894,1.0626666167821521,0.0
0.3204272363150868,0.8262122265848303,-0.12967792139385248,1.0278984147927206,1.2257040405792399,-0.16607578959758718,0.06742717019887041,0.1102218394402804,0.11165083516320756,0.49551495467074635,1.066820129434536,0.0
0.34045393858477974,0.823075543543083,-0.15683415208736465,1.0516897538442245,1.1895669525751946,-0.16358520223222894,0.12452936826791344,0.1013946702576,0.10242198155026871,0.4949377817386579,1.0709689524201722,0.0
0.3604806408544726,0.8194452158759594,-0.18151638335618064,1.0744971836078263,1.1403714881800913,-0.16027500897256877,0.1655096629830087,0.09415211015403434,0.09495322388136426,0.49432587236895703,1.0751127945603784,0.0
0.38050734312416556,0.8153648935266271,-0.2040161174666173,1.0961094573138896,1.0806136853031703,-0.1563270146919997,0.19739971402845335,0.08954476774062017,0.090112650444695,0.49367926950755014,1.0792513650260465,0.0
0.4005340453938585,0.8108666625900974,-0.2249115468264815,1.1163929064355629,1.0141724560836634,-0.15192849965041727,0.2199257520791219,0.08623923610949585,0.0866801788264119,0.49299801853525244,1.083384373358051,0.0
0.4205607476635514,0.8059769239214529,-0.24448693343222389,1.13525380261735,0.9430448090893516,-0.1471815265369726,0.23734865567223234,0.08527312711818939,0.08559424075942024,0.49228216726460267,1.087511529487638,0.0
0.44058744993324434,0.8007117988058864,-0.2632562557783266,1.1526671200335248,0.8706658708087353,-0.14218236433343145,0.2499581101770569,0.08554472478469256,0.08579275146738531,0.4915317659365077,1.09163254375678,0.0
0.4606141522029373,0.7950824687419086,-0.2814665031988901,1.1686447249263319,0.7988802446403572,-0.13698978225772734,0.2596291037852093,0.08658705121760568,0.0867860662943235,0.49074686721671645,1.0957471269385064,0.0
0.48064085447263016,0.7890974917759938,-0.29924884829573906,1.1832212933885218,0.7288284231094944,-0.1316432228489423,0.2673279704392511,0.08817111092311998,0.08832706325834412,0.48992752619212343,1.0998549902572035,0.0
0.5006675567423231,0.782763995185646,-0.31667482951738957,1.19644730432649,0.6613005468984121,-0.12617732403048254,0.27329494092298745,0.09044692941379774,0.09057338947062377,0.48907380036690284,1.1039558454088796,0.0
0.520694259012016,0.7760872607486687,-0.3338367218488636,1.2083935549481726,0.5973125310841286,-0.12061582643873504,0.27807487958737387,0.09288295492410559,0.09298596473965932,0.48818574965847245,1.108049404581401,0.0
0.540720961281709,0.7690730002580938,-0.3507130245287473,1.2191354319135377,0.5370938482682602,-0.11497760867715408,0.28191088807904907,0.09552007864577898,0.09560393011063004,0.48726343639328856,1.1121353804746905,0.0
0.5607476635514019,0.7617272584348873,-0.3672870911603235,1.2287540984135303,0.4809333249996312,-0.109278092963989,0.2849757856582559,0.09827774929699254,0.09834520190943309,0.48630692530247177,1.116213486320892,0.0
0.5807743658210948,0.7540567648007352,-0.38352468170760323,1.237334113000267,0.4290007293368407,-0.10353047502894842,0.2873808967520294,0.10107737135376149,0.10113644364640167,0.4853162835172637,1.1202834359044958,0.0
0.6008010680907877,0.7460692189050359,-0.3993772947849705,1.2449612045172331,0.381354575848299,-0.09774151953907019,0.2894477744939085,0.10388285881319965,0.10392815570948837,0.48429158056431554,1.1243449435824273,0.0
0.6208277703604806,0.7377734233917393,-0.41478977566482367,1.2517210218820551,0.3379908682411027,-0.0919222987838403,0.29096103776149507,0.10660483746251398,0.10663646704001682,0.4832328883608088,1.128397724304094,0.0
0.6408544726301736,0.7291795287112898,-0.4296947340224793,1.2576965900921488,0.2987784105046907,-0.08608378470471781,0.2919257039561256,0.10923452703032821,0.10925375758278283,0.48214028120940733,1.1324414936313905,0.0
0.6608811748998665,0.7202989862220804,-0.4440271244604645,1.2629680737723836,0.26357418401174093,-0.08023592078683965,0.2923931958939068,0.11174392534708581,0.1117521910911354,0.48101383579304297,1.1364759677586627,0.0
0.6809078771695595,0.7111445405140148,-0.4577222854032842,1.2676119556692018,0.2321940948409084,-0.07438749057828391,0.2924215104277881,0.11412621466029516,0.11412267902518629,0.47985363116953333,1.1405008635326255,0.0
0.7009345794392524,0.7017301532181381,-0.4707193647938333,1.271700802015908,0.20444231733530574,-0.06854793573890988,0.2919777419687012,0.11636921820888066,0.11635400721343465,0.4786597487660336,1.144515898472236,0.0
0.7209612817089452,0.6920709294786669,-0.4829611869735608,1.2753029153929722,0.18010566885321724,-0.06272658514817825,0.29106752953658105,0.11846504604892867,0.11843949413209826,0.4774322723733215,1.1485207907885173,0.0
0.7409879839786382,0.6821830220895472,-0.4943953694559837,1.278482116113303,0.15896003601654068,-0.05693168834979555,0.2897448399191339,0.12042791860238475,0.12039061666621771,0.4761712881399164,1.1525152594043386,0.0
0.7610146862483311,0.6720834912464078,-0.5049765421569696,1.281298118211231,0.14080010489639463,-0.05117261174975715,0.2879538300019204,0.12223543510444365,0.12218450226525597,0.47487688456603344,1.156499023974139,0.0
0.7810413885180241,0.6617902353241971,-0.5146627961105342,1.2838058559141363,0.1253868851452583,-0.04546021468503446,0.285619853236134,0.1239021718320539,0.12384016063972443,0.47354915249737217,1.1604718049036047,0.0
0.801068090787717,0.6513218413479233,-0.5234196988136957,1.2860559770070503,0.11250605464569959,-0.039803300941500294,0.28284568717670844,0.12543846836820474,0.12536348051790888,0.4721881851187405,1.1644333233692916,0.0
0.82109479305741,0.6406974526027724,-0.5312194372575412,1.2880950799951998,0.10195514940747151,-0.0342121820761298,0.2795559432685248,0.1268533434934038,0.1267655605750259,0.4707940779475151,1.1683833013381941,0.0
0.8411214953271028,0.6299366467439934,-0.5380402929389494,1.2899660104423525,0.09354652235763207,-0.028697011767176497,0.2757585154476651,0.128125529368274,0.128027004826083,0.46936692882693704,1.1723214615872586,0.0
0.8611481975967957,0.619059345959517,-0.5438650392238239,1.29170725844333,0.08706240004887451,-0.02326628871350929,0.27153615268336,0.12913599052448868,0.12901740594198477,0.4679068379192454,1.1762475277228392,0.0
0.8811748998664887,0.6080858033894896,-0.5486771285013703,1.2933492662965707,0.0821003926620347,-0.017935956215329216,0.26651662490900396,0.13033743646259977,0.13021103575700224,0.46641390769864727,1.1801612242000974,0.0
0.9012016021361816,0.5970361107783351,-0.5524846305577237,1.2949281644452224,0.07894490743258685,-0.012712143608748828,0.26119063032901924,0.13135494269575135,0.1312055552703473,0.46488824294412573,1.184062276342339,0.0
0.9212283044058746,0.5859304280800569,-0.5552841349139079,1.2964742540362828,0.07730447955301964,-0.007613109890582169,0.254951685908333,0.13206246851741077,0.13189197124712945,0.4633299507320861,1.1879504103602934,0.0
0.9412550066755675,0.5747889022665816,-0.5570762906737611,1.2980085335052345,0.07671397344758206,-0.0026555914481174022,0.2478759221232384,0.13286718145418805,0.13269730899691523,0.4617391404288412,1.1918253533713281,0.0
0.9612817089452603,0.5636313499932621,-0.5578776136659764,1.2995550700625749,0.07732682786701645,0.0021610816042994404,0.2408336526208421,0.1335777725195443,0.13340323633119455,0.4601159236829352,1.1956868334186013,0.0
0.9813084112149533,0.5524772474282781,-0.5577051282492008,1.3011349328279078,0.07899313826665058,0.006833345973846069,0.23361321847733135,0.1341928070373896,0.13401106609756033,0.4584604144173082,1.1995345794901475,0.0
1.0013351134846462,0.5413456811915284,-0.5565783118374878,1.302766201224279,0.08156341981856964,0.011355608164926074,0.22611310955400024,0.13498509616693796,0.13480908252187868,0.45677272882130043,1.2033683215379,0.0
1.0213618157543392,0.5302553419512269,-0.5545169620150706,1.3044722879830302,0.0853043379375526,0.015732625035941285,0.21885084355076045,0.05632337490549236,0.056678263152419445,0.45505298534249783,1.2071877904966422,0.0
1.041388518024032,0.5191978626775697,-0.5528739636828571,1.303930234541073,-0.02710267209785254,0.02038928132249935,0.23283281432790331,0.05665561412761879,0.05632337492000876,0.45330130467841884,1.2109927183028915,0.0
1.061415220293725,0.5081804575702648,-0.550870255365249,1.3011424104527838,-0.13939120441446495,0.02477555692819789,0.21931378028492712,0.07195846798132063,0.07184814191426385,0.4515178097680436,1.2147828379137142,0.0
1.081441922563418,0.49722031045081566,-0.548007355972454,1.2965681093970167,-0.22871505278835685,0.029069293932356695,0.21468685020794026,0.09192956406316838,0.09184616965249898,0.44970262578318554,1.2185578833254664,0.0
1.101468624833111,0.4863415852521119,-0.5439362599351882,1.2908014087322746,-0.2883350332371135,0.03329214358636018,0.21114248270017424,0.10855343718443494,0.10840912790364651,0.44785588011970645,1.2223175895924638,0.0
1.1214953271028039,0.4755703439897646,-0.5385620631173638,1.2843350638198494,-0.32331724562126263,0.03739545526708738,0.20516558403635896,0.12214889893143327,0.12193631481894576,0.4459777023885754,1.2260616928455754,0.0
1.1415220293724968,0.46493349728289574,-0.5318423353434437,1.2775712149507403,-0.33819244345545335,0.04132474495362206,0.196464484326734,0.13307101393063694,0.13279183984986406,0.44406822440677224,1.229789930310744,0.0
1.1615487316421895,0.4544577787424425,-0.5237859270226631,1.2708321428399516,-0.3369536055394404,0.045026936095276304,0.1851095570827128,0.14160116787769858,0.14126896262712857,0.44212758018803616,1.2335020403274277,0.0
1.1815754339118825,0.44416878928790415,-0.5144494727269154,1.264368910537953,-0.323161615099931,0.04845985485617887,0.17164593804512795,0.1480964842103912,0.14772284465161525,0.4401559059334601,1.2371977623669645,0.0
1.2016021361815754,0.43409029597498433,-0.5039246656459919,1.2583720568259245,-0.2998426856014297,0.05159064599919999,0.15653955715105636,0.15275673243941995,0.152354408100911,0.4381533400219318,1.2408768370508576,0.0
1.2216288384512684,0.4242435541656422,-0.4923370904671063,1.2529776723637416,-0.2697192231091474,0.05439668254184536,0.14030182713226907,0.15588694595247313,0.15546544205546597,0.43612002300042185,1.244539006168978,0.0
1.2416555407209613,0.4146469748461124,-0.47982896597648844,1.2482765168948575,-0.23505777344420786,0.056862957511605944,0.12331374848802924,0.1577858818185296,0.15734919166761693,0.4340560975741196,1.2481840126976884,0.0
1.2616822429906542,0.4053160096460077,-0.46654826000523264,1.244322894019227,-0.19768114378152493,0.05897766510268983,0.10573537955419351,0.15864428148227216,0.15821258298489305,0.43196170859641764,1.2518116008178803,0.0
1.2817089452603472,0.39626307251457094,-0.45264685657183995,1.2411406254331605,-0.15911342930332556,0.0607451440225315,0.08837394599208323,0.15865119306415637,0.1582269661596745,0.42983700305874556,1.2554215159329298,0.0
1.3017356475300401,0.3874975622498774,-0.4382755132346767,1.238728453176252,-0.12060861284543,0.0621717030065276,0.07132794919980603,0.15797222425113366,0.157561395876,0.4276821300802533,1.2590135046865651,0.0
1.321762349799733,0.37902603496608894,-0.4235763641894226,1.2370650381340411,-0.08317075211054235,0.06326837697486137,0.05483369841668871,0.15680222202283106,0.1564068830031956,0.4254972408973459,1.262587314980648,0.0
1.341789052069426,0.37085250966679545,-0.40867626496467374,1.2361146982266151,-0.047516995371297256,0.06404785447076985,0.03897387479542327,0.1552732790878948,0.1548936862509994,0.4232824888530689,1.266142695992867,0.0
1.361815754339119,0.36297874191203705,-0.3936883877379189,1.2358313038433872,-0.014169719161399502,0.0645230099040271,0.02375777166286305,0.15341135879279705,0.15303623689679538,0.42103802938634616,1.2696793981943417,0.0
1.3818424566088119,0.3554043308451347,-0.3787205533451185,1.2361588812952982,0.01637887259554885,0.0646976786991146,0.008733439754374002,0.15153883900361773,0.15118877666737682,0.4187640200210709,1.2731971733671346,0.0
1.4018691588785048,0.34812745182353183,-0.36384395108014134,1.237041618434808,0.04413685697549405,0.06459215667408102,-0.005276101251678425,0.14951322789893476,0.14918974570091262,0.4164606203550497,1.276695774621672,0.0
1.4218958611481975,0.34114463031915854,-0.3491410752186654,1.2384193614874774,0.06888715263346668,0.06422793375508451,-0.018211145949825272,0.14750665839627147,0.14720402825290838,0.4141279920488021,1.2801749564140723,0.0
1.4419225634178905,0.3344512018021654,-0.3346714258496563,1.240232589546385,0.09066140294537979,0.06362190342211813,-0.030301516648319808,0.14544924782255103,0.14516521085496087,0.4117662988142137,1.283634474563378,0.0
1.4619492656875834,0.328041321522264,-0.32049401399507094,1.2424203861209344,0.10938982872746962,0.06278914307197307,-0.0416380175072522,0.14350967920293237,0.14324918334803588,0.40937570640304727,1.287074086268695,0.0
1.4819759679572764,0.32190840702308193,-0.306645724959105,1.244925524109405,0.12525689942353607,0.06174868005802798,-0.052023150697255154,0.1416711864121463,0.14143215453845637,0.4069563825953091,1.2904935501262298,0.0
1.5020026702269693,0.31604519645582146,-0.2931605283630228,1.2476938528118753,0.13841643512350826,0.06051786732156074,-0.06154063682336184,0.13989751146476054,0.13967346195662897,0.4045084971874737,1.2938926261462367,0.0
1.5220293724966623,0.3104437848216846,-0.2800705817068436,1.2506731474582127,0.14896473231687415,0.05910886036051876,-0.07045034805209874,0.17246930683498712,0.17834137373350234,0.4020322219805673,1.2972710757698567,0.0
1.5420560747663552,0.305162607054332,-0.26405888836763003,1.2549169836259333,0.2121918083860262,0.062398708872729046,0.16449242561051364,0.14902119524005625,0.1506661901646715,0.3995277307681099,1.3006286618858631,0.0
1.5620827770360481,0.30014936493726485,-0.2506621058533585,1.259668333978876,0.23756751764713466,0.06700148140018737,0.23013862637291665,0.14914340170263155,0.14937842893481074,0.3969951993239177,1.3039651488473027,0.0
1.582109479305741,0.2954173005831903,-0.23660321770372592,1.2649085091539534,0.26200875875386936,0.07178774408320505,0.2393131341508847,0.14611498356472483,0.14546857535507643,0.39443480538976705,1.3072803024880322,0.0
1.602136181575434,0.29097957190338225,-0.22188643399040306,1.2705330761739597,0.28122835100032,0.0760521407792816,0.21321983480382656,0.1431993672190481,0.14213745983142,0.39184672866291986,1.3105738901391553,0.0
1.622162883845127,0.2868498666108483,-0.20648526462669642,1.2764478561680324,0.2957389997036279,0.07946288036916024,0.17053697949393323,0.1400748644156343,0.13885549625825647,0.3892311507835117,1.3138456806453502,0.0
1.64218958611482,0.2830386242399567,-0.1905621185445829,1.282556554544478,0.3054349188222743,0.08189493718978305,0.12160284103113982,0.13694804597092602,0.13572007041091616,0.38658825532180363,1.3170954443810947,0.0
1.6622162883845129,0.27955218331859377,-0.17432204606814602,1.2887653874924163,0.31044164739692376,0.08334243422631486,0.07237485182659055,0.1339234855478471,0.1327608184040664,0.3839182277652987,1.3203229532667808,0.0
1.6822429906542056,0.27639271999410947,-0.1579731662242146,1.294985122057807,0.31098672826953405,0.0838585567147439,0.02580612442145252,0.1311915958426344,0.13013148005603406,0.38122125550572394,1.3235279807847222,0.0
1.7022696929238985,0.27355894879994525,-0.1416885597082114,1.3011361605080396,0.3075519225116313,0.08352616313357299,-0.016619679058545674,0.128809982536153,0.12786733076449516,0.37849752782587825,1.3267103019950528,0.0
1.7222963951935915,0.2710467214686275,-0.12561136656588773,1.3071498760051454,0.30068577485528813,0.08243991851101412,-0.05431223112794387,0.12678072038035926,0.12595549038460807,0.37574723588634806,1.329869693551513,0.0
1.7423230974632844,0.2688495373374942,-0.10985920655666527,1.3129683994675572,0.29092617312058805,0.08069440647411168,-0.08727560184512342,0.12514448773598885,0.12443030687664855,0.3729705727120911,1.3330059337171258,0.0
1.7623497997329773,0.2669591261359141,-0.09452056007900703,1.3185456676369742,0.2788634084708531,0.07837906890221319,-0.11576687859492449,0.12387913059683454,0.12326768376326219,0.37016773317888907,1.336118802379758,0.0
1.7823765020026703,0.26536580928542786,-0.07966584252431162,1.3238466801045095,0.2650506233767566,0.07557664187612517,-0.1401213513043998,0.12298399620123363,0.12246535955287798,0.3673389139996707,1.339208081067569,0.0
1.8024032042723632,0.26405883691176063,-0.06534861868336124,1.328847401165152,0.2500360530321376,0.07236186324607013,-0.1607389315027522,0.12244865264931665,0.12201407658827078,0.3644843137107058,1.3422735529643444,0.0
