time,x,x_dot,z,z_dot,theta,theta_dot,u1,u2,x_ref,z_ref,theta_ref
0.0,0.5748453837732472,0.06673386691671651,1.047904460184225,0.09468981922802258,-0.10526657683505607,0.029384668650043466,0.2808709245128363,0.29668288641621016,0.5,1.0,0.0
0.020026702269692925,0.5752798342402597,0.021722523350624176,1.0543855558443929,0.324054783008394,-0.09202979790938377,0.6618389462836165,0.16829633390985554,0.16224743282717116,0.4999824541392403,1.0041887412073853,0.0
0.04005340453938585,0.57519929115213,-0.004027154406489309,1.0618096207606438,0.3712032458125413,-0.0836493138346611,0.41902420373613325,0.1421557418551258,0.14063047998025777,0.4999298177883902,1.0083771884344908,0.0
0.06008010680907877,0.5747338284425232,-0.023273135480339657,1.069477238516932,0.3833808878144112,-0.07649851009847387,0.35754018680936095,0.13651973926584918,0.135132697226409,0.49984209464164997,1.0125650477216688,0.0
0.0801068090787717,0.5739326285482554,-0.040059994713386185,1.077226774841278,0.38747681621730545,-0.07046507762653824,0.301671623596782,0.13140255527453837,0.1303489327849338,0.49971929085573213,1.0167520251505358,0.0
0.10013351134846463,0.5728359626309457,-0.05483329586548519,1.0849141553902444,0.3843690274483212,-0.06528081064274982,0.2592133491894216,0.12790199464987084,0.127099854445017,0.4995614150494292,1.0209378268645999,0.0
0.12016021361815754,0.571474531588417,-0.06807155212643508,1.0924414283024393,0.3763636456097403,-0.06074346967777212,0.22686704824888476,0.12561471376847722,0.12500277024565754,0.49936847830300873,1.0251221590898847,0.0
0.14018691588785048,0.5698724004084026,-0.08010655900072025,1.099745319340631,0.36519455190958305,-0.05670013186290669,0.2021668907432714,0.12423859092609534,0.1237674461491492,0.499140494157436,1.0293047281555483,0.0
0.1602136181575434,0.568048985916264,-0.09117072460692885,1.106788569848499,0.35216252539339715,-0.053037595401975404,0.18312682304656416,0.12354286297565077,0.12316932886659794,0.4988774786134233,1.0334852405144925,0.0
0.1802403204272363,0.5660204331035199,-0.10142764063720028,1.11355325781967,0.33823439855856124,-0.049677350820052486,0.16801222909614552,0.12332518508721213,0.12302747781578682,0.49857945013030697,1.0376634027639664,0.0
0.20026702269692925,0.5638005972493209,-0.1109917927099531,1.1200351601196472,0.3240951149988603,-0.046558410556018275,0.15594701320171012,0.12344705954859449,0.12320907214559845,0.4982464296247522,1.0418389216661577,0.0
0.22029372496662217,0.561401691052429,-0.11994530984459133,1.1262397573694292,0.3102298624890977,-0.043632743552026836,0.14628335019957264,0.12379331367289684,0.1236011221744762,0.4978784404692846,1.0460115041687736,0.0
0.24032042723631508,0.5588347625847542,-0.12834642338374194,1.1321788710480405,0.2969556839305681,-0.040863512003384936,0.13846157743209528,0.12427733549230063,0.12411885858354785,0.4974755084906501,1.0501808574256075,0.0
0.260347129506008,0.5561100368982502,-0.1362362843251982,1.137868137572807,0.2844633262383222,-0.03822358362654169,0.13199641884216223,0.12484517360640081,0.12471302448943931,0.4970376619680023,1.0543466888170925,0.0
0.28037383177570097,0.5532371416658903,-0.1436447616179942,1.1433254892633657,0.27286758452794,-0.0356917648863987,0.1265909370071495,0.1254299163170767,0.12531939329584296,0.4965649316309177,1.0585087059708387,0.0
0.30040053404539385,0.5502252949057693,-0.15059233800605237,1.148569219950479,0.2621865343556578,-0.03325064613904353,0.12205593736775847,0.12607569727958937,0.1259803256008007,0.49605735065723894,1.0626666167821521,0.0
0.3204272363150868,0.5470833355625994,-0.15709796715849872,1.1536192723449132,0.25250261972171556,-0.030888015764767632,0.11813151871379508,0.1267024825110487,0.12661904535128074,0.49551495467074635,1.066820129434536,0.0
0.34045393858477974,0.5438198735418129,-0.16317310103931978,1.1584949203483093,0.2437824001698012,-0.028594248317150548,0.11468837238085361,0.1273032457027727,0.12722777141299232,0.4949377817386579,1.0709689524201722,0.0
0.3604806408544726,0.540443333231583,-0.16882701551149495,1.1632145548183326,0.23598172350116497,-0.026362905611195128,0.11156713529777143,0.12794240714972396,0.12787159509662077,0.49432587236895703,1.0751127945603784,0.0
0.38050734312416556,0.5369619251541878,-0.17407040386975647,1.1677976058720585,0.22915255268629078,-0.024190196636427425,0.10863544873838522,0.12850919536243313,0.12844213113978517,0.49367926950755014,1.0792513650260465,0.0
0.4005340453938585,0.5333837599901953,-0.17890825819962905,1.1722612989608336,0.22318465443875946,-0.0220730659068514,0.10585653647880122,0.12896586020940456,0.12890155331918648,0.49299801853525244,1.083384373358051,0.0
0.4205607476635514,0.5297168723811507,-0.1833443804522248,1.1766195399461254,0.21791204926459104,-0.020009253568397032,0.10319061692271855,0.129383709282057,0.12932091896254339,0.49228216726460267,1.087511529487638,0.0
0.44058744993324434,0.5259691619803196,-0.187385520041556,1.1808850289416895,0.2132744497782057,-0.017997494801260717,0.10058793835681581,0.12975956277110884,0.12969674198125283,0.4915317659365077,1.09163254375678,0.0
0.4606141522029373,0.5221483945494004,-0.1910383715459597,1.1850691644297608,0.2092067744035738,-0.016037763858218233,0.09798654715212402,0.13010718366408533,0.13004444997387787,0.49074686721671645,1.0957471269385064,0.0
0.48064085447263016,0.5182621893248337,-0.19431026122833797,1.1891824783948282,0.2056656982533673,-0.014129941177499758,0.09539113403592396,0.13042366848574408,0.1303590257022653,0.48992752619212343,1.0998549902572035,0.0
0.5006675567423231,0.5143180143139715,-0.1972087505431096,1.1932345211266226,0.20260213658972448,-0.012275504479052391,0.0927218349223682,0.1307140840038539,0.1306491715552729,0.48907380036690284,1.1039558454088796,0.0
0.520694259012016,0.5103231767740061,-0.19974187699827403,1.1972340674014006,0.19997731373889444,-0.010474618756919254,0.09004428610665685,0.13111300169934142,0.1310467913493682,0.48818574965847245,1.108049404581401,0.0
0.540720961281709,0.5062847633923031,-0.2019206690851504,1.2011930658452652,0.19794992219323354,-0.008728271664989627,0.0873173545964816,0.13128910255973944,0.13122055811013267,0.48726343639328856,1.1121353804746905,0.0
0.5607476635514019,0.5022097588965257,-0.20375022478886665,1.2051168201812157,0.19618771679752622,-0.0070382791158948394,0.08449962745473913,0.13145517149358638,0.13138608178754804,0.48630692530247177,1.116213486320892,0.0
0.5807743658210948,0.49810494952041917,-0.2052404688053278,1.2090103438169302,0.19467618178572146,-0.005405024489699738,0.08166273130975522,0.13161013679647351,0.1315394466688526,0.4853162835172637,1.1202834359044958,0.0
0.6008010680907877,0.49397691434296154,-0.20640175887288284,1.2128782872933053,0.1933971738187592,-0.003829735194670773,0.07876446475144824,0.1317389249772741,0.13166719599507912,0.48429158056431554,1.1243449435824273,0.0
0.6208277703604806,0.48983202369141815,-0.20724453257717043,1.216724517078355,0.19231148925248254,-0.0023131885070587326,0.07582733438060202,0.13186375125499492,0.13179048078846764,0.4832328883608088,1.128397724304094,0.0
0.6408544726301736,0.48567642758153484,-0.20777980549416664,1.2205527599148425,0.1914121418243754,-0.000856563359137394,0.07283125739606687,0.13197094309170251,0.13189606390519995,0.48214028120940733,1.1324414936313905,0.0
0.6608811748998665,0.4815160525698314,-0.2080187505851738,1.2243662053340265,0.19067227095920422,0.0005389083327687833,0.06977358459530886,0.13206302629682068,0.13198687726329492,0.48101383579304297,1.1364759677586627,0.0
0.6809078771695595,0.4773565943031662,-0.20797291333325948,1.228167588110896,0.19006913884347446,0.0018722665861929987,0.06666791267121075,0.13212269896124632,0.132044979065908,0.47985363116953333,1.1405008635326255,0.0
0.7009345794392524,0.47320351018996104,-0.20765420566025736,1.2319586676335574,0.18955397613306885,0.0031423111782695507,0.06350222960382768,0.1321718947011284,0.13209347088763748,0.4786597487660336,1.144515898472236,0.0
0.7209612817089452,0.46906201268793823,-0.20707487510114037,1.2357408971638815,0.1891114765162002,0.004348536213972654,0.06031125178515509,0.1322471720016645,0.13216773234764492,0.4774322723733215,1.1485207907885173,0.0
0.7409879839786382,0.4649370667396026,-0.20624729741678094,1.2395164908809535,0.18877968585359883,0.005490186393534152,0.05708250897807484,0.13230916340851712,0.1322290544861316,0.4761712881399164,1.1525152594043386,0.0
0.7610146862483311,0.4608333856413038,-0.2051840549149387,1.2432872672558448,0.1885388187445643,0.006566784022224335,0.053829881434509334,0.13236408234919586,0.13228281884368734,0.47487688456603344,1.156499023974139,0.0
0.7810413885180241,0.4567554275268563,-0.2038979057223771,1.2470548221633648,0.1883777453759967,0.007577463243602649,0.05053396106891563,0.13239365597331576,0.13231258299490575,0.47354915249737217,1.1604718049036047,0.0
0.801068090787717,0.45270738934833843,-0.20240190892589285,1.2508200156917333,0.1882596764184224,0.008522434713120832,0.04724857347590914,0.13247693218204804,0.1323955948451611,0.4721881851187405,1.1644333233692916,0.0
0.82109479305741,0.4486932187334456,-0.20070853074464126,1.2545852892272067,0.18826367677367548,0.009401544646181136,0.04395549665301523,0.13247118274002942,0.1323900223283585,0.4707940779475151,1.1683833013381941,0.0
0.8411214953271028,0.44471658368715145,-0.1988317523147069,1.2583504488311634,0.18825798019783435,0.010214992073693087,0.0406723713755975,0.13247059366125136,0.1323886099622646,0.46936692882693704,1.1723214615872586,0.0
0.8611481975967957,0.44078089065544823,-0.19678465158516031,1.2621154381818764,0.18824946753565547,0.010962175337919386,0.037359163211314925,0.13246033254065787,0.13237964851213233,0.4679068379192454,1.1762475277228392,0.0
0.8811748998664887,0.43688928200386573,-0.19458043257912636,1.2658799458670877,0.18822538426056287,0.011644191319432312,0.034100799075646226,0.13242954609645943,0.13234979564360533,0.46641390769864727,1.1801612242000974,0.0
0.9012016021361816,0.43304462946568967,-0.19223262690880447,1.2696430478641207,0.188155099851653,0.01226184273489562,0.030882570773165616,0.1324134605688645,0.13233487435055313,0.46488824294412573,1.184062276342339,0.0
0.9212283044058746,0.42924954977518204,-0.18975398452538145,1.2734042612471035,0.18806066914913241,0.01281611580685,0.027713653597719032,0.13243041943011324,0.1323522176426557,0.4633299507320861,1.1879504103602934,0.0
0.9412550066755675,0.4255064156525223,-0.1871567061329869,1.2771640726321445,0.18799056925205035,0.01330737175125537,0.024562797220268492,0.1324110732914869,0.13233429456530194,0.4617391404288412,1.1918253533713281,0.0
0.9612817089452603,0.4218173357881982,-0.1844539932162037,1.2809219097664022,0.18789185671288441,0.013736802064081859,0.021471515641324407,0.13239028174347192,0.1323149247175692,0.4601159236829352,1.1956868334186013,0.0
0.9813084112149533,0.4181841683520942,-0.1816583718051999,1.2846771604742508,0.187762535392433,0.014105595841086681,0.018439688850241012,0.13236850689467972,0.13229454202758043,0.4584604144173082,1.1995345794901475,0.0
1.0013351134846462,0.41460852619952887,-0.17878210762826593,1.2884291862414603,0.18760128836047787,0.01441491725306712,0.015466070599022016,0.13234577606958062,0.1322733904084552,0.45677272882130043,1.2033683215379,0.0
1.0213618157543392,0.41109178196202134,-0.17583721187537618,1.2921773264755676,0.18740701170535973,0.014666078854604237,0.012558080076855896,0.056323374909983515,0.05877295139258609,0.45505298534249783,1.2071877904966422,0.0
1.041388518024032,0.40760315258153135,-0.1744314690244991,1.2937066512499904,0.07646623872114104,0.0168766976135236,0.11053093794596797,0.05632337495575036,0.057620659940000755,0.45330130467841884,1.2109927183028915,0.0
1.061415220293725,0.40414260197872176,-0.17302753014047917,1.2930023977922502,-0.03521267288701324,0.020123177377909276,0.16232398821928357,0.05890986041495143,0.059400294116650175,0.4515178097680436,1.2147828379137142,0.0
1.081441922563418,0.4007148877614984,-0.1713857108611678,1.290131300644997,-0.14355485736266071,0.023758983267081226,0.18179029445859737,0.08160375553384605,0.0815642897183954,0.44970262578318554,1.2185578833254664,0.0
1.101468624833111,0.3973391693293537,-0.1687859216072333,1.2857598288318457,-0.21857359065756599,0.02735977930456015,0.18003980187394672,0.10024727968688624,0.09978793854519104,0.44785588011970645,1.2223175895924638,0.0
1.1214953271028039,0.3940373000162266,-0.16509346565635422,1.2804354682949044,-0.2662180268470644,0.03058970554491989,0.1614963120179869,0.11545040423730443,0.11476471784188927,0.4459777023885754,1.2260616928455754,0.0
1.1415220293724968,0.3908322011255807,-0.160254944532296,1.2746060195145943,-0.29147243901550174,0.03326808429242747,0.13391893737537905,0.12740127625726735,0.12661817549621981,0.44406822440677224,1.229789930310744,0.0
1.1615487316421895,0.387745617976752,-0.15432915744143588,1.2686242760792745,-0.2990871717659931,0.03531755502673935,0.10247353671559359,0.13655366807868619,0.13575367587947507,0.44212758018803616,1.2335020403274277,0.0
1.1815754339118825,0.384796519924183,-0.1474549026284496,1.2627608792290077,-0.2931698425133428,0.036725225756015764,0.07038353646382091,0.1433575996327425,0.14258714911386658,0.4401559059334601,1.2371977623669645,0.0
1.2016021361815754,0.38200013715900794,-0.13981913825875408,1.2572172892139313,-0.27717950075381975,0.03751533128283001,0.03950527634071253,0.14821153973899617,0.14749703217310486,0.4381533400219318,1.2408768370508576,0.0
1.2216288384512684,0.37936753819754354,-0.13162994807321968,1.252137424600677,-0.2539932306627165,0.03773317388027206,0.010892129872102106,0.1514744021577561,0.15082818426217304,0.43612002300042185,1.244539006168978,0.0
1.2416555407209613,0.3769056229476754,-0.12309576249340835,1.2476181921023453,-0.22596162491657693,0.03743386600122435,-0.01496539395238556,0.15344218197892937,0.15286987686545958,0.4340560975741196,1.2481840126976884,0.0
1.2616822429906542,0.37461737488975444,-0.11441240289604727,1.2437182315411064,-0.19499802806194577,0.03667695708161491,-0.037845445980471314,0.15437985957254416,0.15388234191811914,0.43196170859641764,1.2518116008178803,0.0
1.2817089452603472,0.3725022861322858,-0.10575443787343042,1.2404657443807419,-0.1626243580182245,0.03552266259604495,-0.05771472427849841,0.15452004486007892,0.15409409403774488,0.42983700305874556,1.2554215159329298,0.0
1.3017356475300401,0.3705568693876742,-0.0972708372305826,1.2378653504555315,-0.13001969626051552,0.03402858441101882,-0.0747039092513068,0.15406528737141736,0.15370640129668586,0.4276821300802533,1.2590135046865651,0.0
1.321762349799733,0.3687751960721552,-0.08908366577594877,1.235904078743795,-0.09806358558683032,0.032248682239963834,-0.08899510855274956,0.1531650896965011,0.1528681789291971,0.4254972408973459,1.262587314980648,0.0
1.341789052069426,0.36714938684651865,-0.08129046128182675,1.234555785416656,-0.06741466635694253,0.0302328024750887,-0.10079398824375696,0.1519516911716752,0.15171152081326095,0.4232824888530689,1.266142695992867,0.0
1.361815754339119,0.3656700680873872,-0.0739659379565727,1.233785059809257,-0.03853628036994722,0.02802656206850226,-0.11031202032932184,0.15053452382332655,0.15034527989606702,0.42103802938634616,1.2696793981943417,0.0
1.3818424566088119,0.36432677302747274,-0.0671647529957242,1.2335504438180558,-0.01173079956006047,0.025670886580716486,-0.11778377438928868,0.1489919011138839,0.14884842326100106,0.4187640200210709,1.2731971733671346,0.0
1.4018691588785048,0.36310827546761504,-0.06092487799288599,1.2338067447168797,0.012815044941191723,0.023202535637722864,-0.12341754714968137,0.1474072170903609,0.14730463869545404,0.4164606203550497,1.276695774621672,0.0
1.4218958611481975,0.36200288278315296,-0.055269634223102715,1.2345074908374705,0.03503730602954053,0.020654340619757586,-0.1274097508982639,0.14583275973327206,0.1457658881350272,0.4141279920488021,1.2801749564140723,0.0
1.4419225634178905,0.3609986577777548,-0.05021125026990638,1.2356064568493579,0.0549483005943734,0.018054946784760165,-0.1299696917498709,0.1442897266525897,0.14425550555322372,0.4117662988142137,1.283634474563378,0.0
1.4619492656875834,0.36008358169639787,-0.0457538040678472,1.2370583106542132,0.07259269024276524,0.015430525951708497,-0.13122104165258347,0.1428100686161468,0.14280523961154074,0.40937570640304727,1.287074086268695,0.0
1.4819759679572764,0.3592456929230124,-0.04189443866927288,1.2388195515611689,0.08806204534777992,0.012804616968277727,-0.13129544917153865,0.1414315313000415,0.1414513947066094,0.4069563825953091,1.2904935501262298,0.0
1.5020026702269693,0.3584732044085315,-0.03862442572404692,1.2408496053199858,0.1015026879408476,0.01019697519836812,-0.13038208849548025,0.14015588102797485,0.14019752141359504,0.4045084971874737,1.2938926261462367,0.0
1.5220293724966623,0.35775458203522814,-0.03593111866516639,1.2431109019135003,0.11306482967572538,0.007625003728883541,-0.12859857347422893,0.17870312641085911,0.1801474622579467,0.4020322219805673,1.2972710757698567,0.0
1.5420560747663552,0.35709081205484744,-0.03318849901903511,1.2467662034808333,0.18276507836665673,0.006210819293950264,-0.07070922174666387,0.16760038237431418,0.16811472304717662,0.3995277307681099,1.3006286618858631,0.0
1.5620827770360481,0.3564655947528675,-0.03126086509899874,1.2514714501525208,0.2352623335843722,0.005209318330076937,-0.05007504819366635,0.15853723123595098,0.1587234375189508,0.3969951993239177,1.3039651488473027,0.0
1.582109479305741,0.35587018797571696,-0.0297703388575279,1.2569521066727212,0.2740328260100148,0.004357623638816739,-0.042584734563009936,0.15080432418671547,0.15081640845223232,0.39443480538976705,1.3072803024880322,0.0
1.602136181575434,0.3552986663215913,-0.02857608270628293,1.2629755647628693,0.30117290450740297,0.0035163067275547116,-0.042065845563101334,0.144366721156734,0.14429407771020009,0.39184672866291986,1.3105738901391553,0.0
1.622162883845127,0.3547463753326968,-0.027614549444722816,1.269349161963697,0.31867986004138477,0.0026175764457118935,-0.04493651409214093,0.13908445580696277,0.1389778596682249,0.3892311507835117,1.3138456806453502,0.0
1.64218958611482,0.3542091526981818,-0.026861131725750057,1.275915445531696,0.32831417839995025,0.0016343205801719529,-0.049162793276997,0.1348285653479898,0.1347161614422761,0.38658825532180363,1.3170954443810947,0.0
1.6622162883845129,0.3536829540543192,-0.026309932193131387,1.282547987198674,0.33162708334890345,0.0005619669098874167,-0.05361768351422682,0.13146943102139635,0.13136611533870654,0.3839182277652987,1.3203229532667808,0.0
1.6822429906542056,0.35316368022199884,-0.025963691616018667,1.2891473124249238,0.32996626131248535,-0.0005921353784143268,-0.05770511441508716,0.12888445168799473,0.12879748893576637,0.38122125550572394,1.3235279807847222,0.0
1.7022696929238985,0.3526471046210142,-0.025828780049232437,1.2956371203914927,0.3244903983284443,-0.001814831262274149,-0.06113479419299112,0.12695886773304133,0.12689116573818374,0.37849752782587825,1.3267103019950528,0.0
1.7222963951935915,0.35212884993589516,-0.025912734255949896,1.3019607870562715,0.31618333323893744,-0.0030906507454418132,-0.06379097415838322,0.1255887907864512,0.12554084326709475,0.37574723588634806,1.329869693551513,0.0
1.7423230974632844,0.35160438941946964,-0.02622302582127628,1.3080782227708703,0.30587178572993684,-0.004403742448700284,-0.06565458516292348,0.12467893219892794,0.12464996407287238,0.3729705727120911,1.3330059337171258,0.0
1.7623497997329773,0.35106906116801784,-0.02676641257259015,1.313963005909779,0.294239156945444,-0.005738889191093925,-0.0667573371196821,0.12414552711198741,0.12413414644984919,0.37016773317888907,1.336118802379758,0.0
1.7823765020026703,0.3505180898414096,-0.027548566330413672,1.319599871996112,0.2818433043166372,-0.007082001033041774,-0.0671555920973924,0.12391578243466607,0.12392024639794695,0.3673389139996707,1.339208081067569,0.0
