time,x,x_dot,z,z_dot,theta,theta_dot,u1,u2,x_ref,z_ref,theta_ref
0.0,-0.2742916154477275,0.01864345203394646,0.891950211964187,0.0247398571353227,0.06232587042284299,-0.09728282766439607,0.2046636111852538,0.22088604847534427,0.5,1.0,0.0
0.020026702269692925,-0.27352637861033363,0.038261841869692656,0.8948167995305993,0.14332937832061926,0.07335987165000879,0.5517000613582905,0.16885601808308828,0.18717190865772523,0.4999824541392403,1.0041887412073853,0.0
0.04005340453938585,-0.27243332052567654,0.05465290423285427,0.899025000331998,0.21041004006993136,0.09903199620004918,1.2836062275020184,0.21845299436564053,0.22573840982492022,0.4999298177883902,1.0083771884344908,0.0
0.06008010680907877,-0.27085900691756204,0.07871568040572566,0.9058720166970377,0.342350818251985,0.13048363260076998,1.5725818200360393,0.23866333018625258,0.2397083038820841,0.49984209464164997,1.0125650477216688,0.0
0.0801068090787717,-0.26858570333016935,0.11366517936963524,0.9158438945840971,0.49859389435296997,0.16270610498981167,1.6111236194520864,0.234437684986361,0.23127497535639147,0.49971929085573213,1.0167520251505358,0.0
0.10013351134846463,-0.2654174360046186,0.15841336627753805,0.9287245105774724,0.6440307996687679,0.19233241359678627,1.4813154303487321,0.23884160897969417,0.23282209190224207,0.4995614150494292,1.0209378268645999,0.0
0.12016021361815754,-0.26112146717674295,0.21479844139378143,0.9445633096378541,0.7919399530190829,0.21708641199097206,1.2376999197092866,0.23332284445181925,0.22566567060630008,0.49936847830300873,1.0251221590898847,0.0
0.14018691588785048,-0.2555319757327091,0.2794745722016927,0.96313348864791,0.9285089505027975,0.2356722344029988,0.9292911206013372,0.2478446586646871,0.23967996432744526,0.499140494157436,1.0293047281555483,0.0
0.1602136181575434,-0.24839565245192363,0.3568161640392725,0.9848074728109548,1.0836992081522379,0.24769874348495322,0.6013254540977211,0.2634093933478621,0.2556352636567951,0.4988774786134233,1.0334852405144925,0.0
0.1802403204272363,-0.2394760672801954,0.44597925858641063,1.010001327802332,1.2596927495688595,0.2534909918953557,0.2896124205201228,0.2499729113034215,0.24293633243750506,0.49857945013030697,1.0376634027639664,0.0
0.20026702269692925,-0.22878280762493347,0.5346629827630969,1.0383075795695367,1.4153125883602327,0.25364809583978737,0.007855197221584787,0.22109221899385958,0.21501949200564102,0.4982464296247522,1.0418389216661577,0.0
0.22029372496662217,-0.2164907453507729,0.6146031137080289,1.0688913676364373,1.5291894033450322,0.24894689158317945,-0.23506021283039386,0.17981311538989073,0.17528082797000838,0.4978784404692846,1.0460115041687736,0.0
0.24032042723631508,-0.20290463140305848,0.6793056973857214,1.100582693315654,1.584566283960832,0.24062454247456833,-0.41611745543055584,0.13430007925636708,0.1311162936726701,0.4974755084906501,1.0501808574256075,0.0
0.260347129506008,-0.18837932172875066,0.7262654837153908,1.132095833788095,1.575657023622053,0.22976468144285342,-0.5429930515857472,0.09066888504493086,0.08877706460432268,0.4970376619680023,1.0543466888170925,0.0
0.28037383177570097,-0.17325225802263713,0.7563531853056765,1.1622018905500948,1.5053028380999867,0.21740485865550002,-0.6179911393676701,0.05744640822744552,0.05643923904606627,0.4965649316309177,1.0585087059708387,0.0
0.30040053404539385,-0.1577734269708378,0.773941552589967,1.189966143532718,1.388212649131161,0.20425536053307386,-0.6574749061213115,0.05706390643704763,0.056323374908297516,0.49605735065723894,1.0626666167821521,0.0
0.3204272363150868,-0.1419643312017783,0.7904547884529752,1.215393152476575,1.2713504471928498,0.19053092489059978,-0.6862217821237062,0.05662390513195727,0.056323374919998156,0.49551495467074635,1.066820129434536,0.0
0.34045393858477974,-0.12584740877146697,0.805846121515566,1.2384878765942051,1.1547362058814963,0.17658460218108354,-0.6973161354758106,0.056323374904929474,0.05632337517740539,0.4949377817386579,1.0709689524201722,0.0
0.3604806408544726,-0.10944549007388768,0.8200959348789639,1.2592567499335532,1.0384436669674066,0.16265721652599635,-0.6963692827543578,0.05632337490490528,0.056584657957698424,0.49432587236895703,1.0751127945603784,0.0
0.38050734312416556,-0.09278021320982374,0.8332638432031966,1.2777137226286452,0.9228486347546025,0.1489577373134348,-0.6849739606280768,0.05632337496707116,0.05684569059696726,0.49367926950755014,1.0792513650260465,0.0
0.4005340453938585,-0.07587333879789246,0.8453437205965644,1.2938720192963364,0.8079148333845623,0.13569453753858826,-0.6631599887423277,0.05632337492612318,0.05662304282760203,0.49299801853525244,1.083384373358051,0.0
0.4205607476635514,-0.05874747832655335,0.8562930235669554,1.3077370246835354,0.6932502693599428,0.12268869755589042,-0.6502919991348907,0.06990080333822973,0.07012756619793672,0.49228216726460267,1.087511529487638,0.0
0.44058744993324434,-0.04136977867701383,0.8688849824769761,1.3197141423597278,0.5988558838096212,0.109881423264778,-0.6403637145556205,0.08561697077016658,0.08584722964127667,0.4915317659365077,1.09163254375678,0.0
0.4606141522029373,-0.023709777858541826,0.8830000409236002,1.3302726831585037,0.5279270399387885,0.09727514783340614,-0.6303137715685939,0.09667855051787055,0.09688723769640596,0.49074686721671645,1.0957471269385064,0.0
0.48064085447263016,-0.005763972890301637,0.8972902484120093,1.3397444340329625,0.47358754372293954,0.08485225062655123,-0.6211448603427467,0.10482699234419544,0.10504951400287049,0.48992752619212343,1.0998549902572035,0.0
0.5006675567423231,0.012454888225758295,0.9109430558029966,1.3483755019238945,0.431553394546597,0.07262346846265645,-0.6114391081947381,0.11055275109939947,0.11085318566939921,0.48907380036690284,1.1039558454088796,0.0
0.520694259012016,0.030922471607048134,0.9233791690644919,1.356340991771837,0.39827449239712337,0.06065078073372425,-0.5986343864466106,0.11492705875152757,0.11536268548098697,0.48818574965847245,1.108049404581401,0.0
0.540720961281709,0.04960797571394496,0.9342752053448413,1.3637764080151826,0.37177081216727703,0.049041881370547886,-0.5804449681588191,0.11797310916582834,0.11850535410590646,0.48726343639328856,1.1121353804746905,0.0
0.5607476635514019,0.06847585316869156,0.9433938727373304,1.3707768377046223,0.35002148447198994,0.03787342704917109,-0.5584227160688391,0.12005986095191942,0.12062131858519876,0.48630692530247177,1.116213486320892,0.0
0.5807743658210948,0.0874882438764825,0.9506195353895469,1.3774073918775118,0.33152770864447195,0.027168034959505878,-0.5352696044832607,0.12166284953573658,0.12222491229721401,0.4853162835172637,1.1202834359044958,0.0
0.6008010680907877,0.10660692150909495,0.9559338816306223,1.3837178622374722,0.3155235179980212,0.0169254158432628,-0.5121309558121537,0.12254627792251994,0.1230679837657259,0.48429158056431554,1.1243449435824273,0.0
0.6208277703604806,0.1257937523692578,0.9593415430081423,1.3897355892303804,0.30088634964541017,0.007112530053522235,-0.49064428948702826,0.12313462154582444,0.12345846445627616,0.4832328883608088,1.128397724304094,0.0
0.6408544726301736,0.14501163061117034,0.9608939120956264,1.395476369415095,0.28703900923572884,-0.0024295918637725774,-0.4771060958647405,0.12346579559676059,0.12370599061854921,0.48214028120940733,1.1324414936313905,0.0
0.6608811748998665,0.1642247609020215,0.9606565145425582,1.4009496628806566,0.2736646732780861,-0.011768290730764486,-0.4669349433495954,0.12349077461541379,0.12367369197182715,0.48101383579304297,1.1364759677586627,0.0
0.6809078771695595,0.18339827104374404,0.9586755070861268,1.4061558889923462,0.2603113055844867,-0.020949702682853486,-0.45907059760444974,0.1234784298788125,0.12371380226021488,0.47985363116953333,1.1405008635326255,0.0
0.7009345794392524,0.20249810923572983,0.9549919095992899,1.4110956662374663,0.2469888622560024,-0.02993210760402436,-0.44912024605854417,0.12346870013189411,0.12379829833173867,0.4786597487660336,1.144515898472236,0.0
0.7209612817089452,0.22149085762876036,0.9496374196515259,1.4157700044748935,0.2337169118713576,-0.038640431334884665,-0.43541618654301495,0.12328552664426136,0.12362926318676633,0.4774322723733215,1.1485207907885173,0.0
0.7409879839786382,0.24034407707174196,0.9426609721490805,1.4201733044858766,0.22016500054915522,-0.04706377620371668,-0.4211672434416015,0.12301755212178413,0.12344808200133116,0.4761712881399164,1.1525152594043386,0.0
0.7610146862483311,0.2590265592013699,0.9341241064813979,1.4242982890234748,0.2062492268799085,-0.05513313260251635,-0.4034678199399825,0.12315147826172573,0.12351560699380536,0.47487688456603344,1.156499023974139,0.0
0.7810413885180241,0.2775078747274802,0.9240657763055139,1.428147097501565,0.1924404239045172,-0.06290213543420259,-0.38845014158431157,0.12329252209889723,0.12362590652457692,0.47354915249737217,1.1604718049036047,0.0
0.801068090787717,0.2957588720767989,0.9125498674659368,1.4317224132303852,0.17876578644100685,-0.0703958092759197,-0.37468369208585506,0.12331450395553628,0.12365187144270755,0.4721881851187405,1.1644333233692916,0.0
0.82109479305741,0.31375169927208124,0.8996413597641177,1.4350237342048833,0.1650660487249021,-0.07761135556103774,-0.360777314255903,0.12333532911493647,0.12367442573449716,0.4707940779475151,1.1683833013381941,0.0
0.8411214953271028,0.33145957238457846,0.8853936556248604,1.438050338759589,0.1513302277352865,-0.08454777661120158,-0.34682105250819145,0.1233442659563396,0.12366616540383167,0.46936692882693704,1.1723214615872586,0.0
0.8611481975967957,0.34885682753473,0.8698627575075768,1.4408007452019236,0.1375203221167296,-0.0912192106043343,-0.3335716996566355,0.1233738824450342,0.12371935966155101,0.4679068379192454,1.1762475277228392,0.0
0.8811748998664887,0.3659187775167544,0.8530974991012196,1.4432745782556766,0.12369165268765077,-0.09760715150653862,-0.3193970451102175,0.12339279336890177,0.12373915633299412,0.46641390769864727,1.1801612242000974,0.0
0.9012016021361816,0.38262180168539733,0.8351512084321466,1.445470718501965,0.10980701231442191,-0.10371126510676563,-0.3052056800113503,0.12352303837770308,0.12389549112605228,0.46488824294412573,1.184062276342339,0.0
0.9212283044058746,0.39894300049330716,0.8160599403954905,1.4473916347716351,0.09604581348350286,-0.1095110483605106,-0.2899891626872466,0.12374676099854909,0.1241444060626063,0.4633299507320861,1.1879504103602934,0.0
0.9412550066755675,0.4148602203020506,0.7958609904371712,1.4490424804694284,0.08254228488966714,-0.11498673558740599,-0.27378436134477185,0.12433870687459153,0.12472370966741304,0.4617391404288412,1.1918253533713281,0.0
0.9612817089452603,0.4303512494796203,0.7745514588784826,1.4504386591014724,0.06980893160219577,-0.12014884532179033,-0.2581054867192152,0.12475189639792943,0.1251226138212125,0.4601159236829352,1.1956868334186013,0.0
0.9813084112149533,0.4453955224176744,0.752213646902706,1.4515902509021479,0.05757959003377686,-0.12500918948625045,-0.24301720822300432,0.1250755905385109,0.12547544577071112,0.4584604144173082,1.1995345794901475,0.0
1.0013351134846462,0.4599737759152046,0.7289126748765112,1.452505334042401,0.04575415701265122,-0.1295448200502068,-0.2267815281978192,0.12552467913263513,0.12592343736746842,0.45677272882130043,1.2033683215379,0.0
1.0213618157543392,0.4740673821042504,0.7046803094522907,1.4531952385500868,0.03449522538429023,-0.13375699592544768,-0.21060879376204447,0.06651751197872027,0.05632337490500336,0.45505298534249783,1.2071877904966422,0.0
1.041388518024032,0.4879066634673003,0.6919640681524938,1.4517688177225336,-0.07132104137766418,-0.1461203291563416,-0.6181666615446966,0.06270361012464355,0.05632337490489799,0.45330130467841884,1.2109927183028915,0.0
1.061415220293725,0.5014920123570645,0.679267444488212,1.4481719439916694,-0.17984368654320843,-0.1635714552103672,-0.8725563027012793,0.05884614282384079,0.05632337490574073,0.4515178097680436,1.2147828379137142,0.0
1.081441922563418,0.514810429660908,0.6659208651921692,1.4423480023431294,-0.2911970824269929,-0.18301434520143453,-0.9721444995533672,0.05632337491607978,0.05632337491076558,0.44970262578318554,1.2185578833254664,0.0
1.101468624833111,0.5278386892408199,0.651412978995598,1.4342586712012753,-0.40446655709270724,-0.2024265598423465,-0.9706107320455974,0.05632337490685197,0.057435326812199795,0.44785588011970645,1.2223175895924638,0.0
1.1214953271028039,0.5405418167686709,0.6351563763925481,1.4239179422652821,-0.5170364467996523,-0.22091877794488082,-0.9246109051267183,0.056323374904913334,0.05851287867988447,0.4459777023885754,1.2260616928455754,0.0
1.1415220293724968,0.5528844220787769,0.6171302655053003,1.4113388015895552,-0.628957033786343,-0.2376312207690891,-0.8356221412104133,0.0735621264995561,0.07636972678993656,0.44406822440677224,1.229789930310744,0.0
1.1615487316421895,0.5647217268865881,0.5918652403905587,1.3970258210518003,-0.7156490268877416,-0.2520733548417318,-0.7221067036321354,0.11669780310436803,0.12000712991619007,0.44212758018803616,1.2335020403274277,0.0
1.1815754339118825,0.5757152770263144,0.5496775069863161,1.382223119161536,-0.74013509451322,-0.2638484068412908,-0.5887525999779486,0.1478165586174412,0.15191734811887012,0.4401559059334601,1.2371977623669645,0.0
1.2016021361815754,0.5855844081355152,0.49345655546003453,1.3678233478437376,-0.7199885658899127,-0.2723280885546497,-0.42398408566794304,0.17054069558563348,0.17486985498660634,0.4381533400219318,1.2408768370508576,0.0
1.2216288384512684,0.5941042001937751,0.4259896029129969,1.3544652565753426,-0.6679045634197522,-0.27733490731653715,-0.2503409380943692,0.18390948588481223,0.18813525829496053,0.43612002300042185,1.244539006168978,0.0
1.2416555407209613,0.601129250580256,0.351252519324048,1.3425149677811106,-0.5975144397116036,-0.278956142339016,-0.08106175112394706,0.18977638824551207,0.19366101305381347,0.4340560975741196,1.2481840126976884,0.0
1.2616822429906542,0.6065894875797617,0.2730118499752839,1.3321243573271457,-0.5195305226982436,-0.2774682794748902,0.07439314320629095,0.1903874731906429,0.19382108645067622,0.43196170859641764,1.2518116008178803,0.0
1.2817089452603472,0.610475493338204,0.1943002879221108,1.3232988839967266,-0.44127366652096167,-0.2732348078828811,0.2116735796004526,0.18721297729699665,0.19013666734692333,0.42983700305874556,1.2554215159329298,0.0
1.3017356475300401,0.6128255693736782,0.1175038017737083,1.3159404201464129,-0.36792319251568995,-0.2666665088790288,0.32841495019261563,0.18175386843064742,0.1842130124005295,0.4276821300802533,1.2590135046865651,0.0
1.321762349799733,0.6137099976907219,0.0442214158521861,1.309890718479411,-0.30248508335008917,-0.2581379174777359,0.42642957006464216,0.1749362796852401,0.17696046899325837,0.4254972408973459,1.262587314980648,0.0
1.341789052069426,0.6132197116564208,-0.024514301715053838,1.3049563560594548,-0.2467181209978137,-0.24799976587070555,0.5069075803515215,0.16780868105513155,0.1694326743432296,0.4232824888530689,1.266142695992867,0.0
1.361815754339119,0.6114544902277236,-0.08826107143486099,1.3009375500668865,-0.20094029962841164,-0.23657470820534554,0.5712528832680015,0.16096350242693774,0.1622356224250065,0.42103802938634616,1.2696793981943417,0.0
1.3818424566088119,0.6085156693218136,-0.1469410452955015,1.2976443085823326,-0.16466207422769422,-0.22414638228524342,0.6214162960051044,0.15461511990645255,0.15558794614270344,0.4187640200210709,1.2731971733671346,0.0
1.4018691588785048,0.6045026283869245,-0.2006520467444559,1.2949018804225143,-0.13712140799091319,-0.21095597667352434,0.6595202805859552,0.1490212997691675,0.14974022662073563,0.4164606203550497,1.276695774621672,0.0
1.4218958611481975,0.5995097711065531,-0.24964286401856525,1.2925575537340328,-0.11721633442407187,-0.19720799140944426,0.6873992632040006,0.144378758697689,0.14487487556985945,0.4141279920488021,1.2801749564140723,0.0
1.4419225634178905,0.5936247030243165,-0.29425340411183404,1.2904858600992704,-0.10358468173812045,-0.1830817088266307,0.7063141291406771,0.14068674494811212,0.14099967900170854,0.4117662988142137,1.283634474563378,0.0
1.4619492656875834,0.5869281606915299,-0.33482711663932874,1.2885885870731415,-0.0948636513064377,-0.1687243870791733,0.7178660873728747,0.13799107703993876,0.13814175476026538,0.40937570640304727,1.287074086268695,0.0
1.4819759679572764,0.5794940559487259,-0.3717052371401937,1.2867958476011632,-0.08963697359892069,-0.15426626674354982,0.7229060167811733,0.13609603019939726,0.1361038965508045,0.4069563825953091,1.2904935501262298,0.0
1.5020026702269693,0.5713909996192236,-0.40515281647512025,1.285060418504374,-0.08677145483946277,-0.13982178197010192,0.7222242386723934,0.13502547403108003,0.13490712794054716,0.4045084971874737,1.2938926261462367,0.0
1.5220293724966623,0.5626826446138905,-0.4354177502666554,1.2833584645204328,-0.0850976991970548,-0.1254918655054008,0.716495823235054,0.2098599949384956,0.2006986160136554,0.4020322219805673,1.2972710757698567,0.0
1.5420560747663552,0.5531366704581187,-0.4772987077885935,1.2837614673900763,0.02015014348218179,-0.1185099774835556,0.3490944010922629,0.18093871871886097,0.178841171838755,0.3995277307681099,1.3006286618858631,0.0
1.5620827770360481,0.5429348548480569,-0.5100907805030851,1.285532151795088,0.08853422025058426,-0.11321362144717823,0.26481780181886744,0.17008306320888664,0.16941621278965152,0.3969951993239177,1.3039651488473027,0.0
1.582109479305741,0.5321507602494867,-0.5392047299285124,1.2883750269736747,0.14214375892933684,-0.1084560974039746,0.2378762021601812,0.1598569589490404,0.16001327005024923,0.39443480538976705,1.3072803024880322,0.0
1.602136181575434,0.5208447502931014,-0.5653004978192646,1.292002840790785,0.1813906908555156,-0.10357823727551177,0.24389300642314218,0.15135915957710117,0.15190955505327558,0.39184672866291986,1.3105738901391553,0.0
1.622162883845127,0.5090668305490186,-0.5888959872041403,1.2961725008624956,0.20848300358552044,-0.09826492003320891,0.2656658621151436,0.14430424450556073,0.14500492711285187,0.3892311507835117,1.3138456806453502,0.0
1.64218958611482,0.4968610700267928,-0.6102880261112874,1.3006798322878221,0.2253665712663264,-0.09239644452481635,0.2934237754196264,0.1385301454337726,0.1392469702845343,0.38658825532180363,1.3170954443810947,0.0
1.6622162883845129,0.48426769572258443,-0.6296687152104187,1.3053565762370114,0.23383719745946532,-0.0859605913509427,0.3217926586936846,0.13405814856982834,0.13472275932254923,0.3839182277652987,1.3203229532667808,0.0
1.6822429906542056,0.47132376938219817,-0.6471963170193145,1.310072020098897,0.23577219309427358,-0.07899986607681,0.34803626370663376,0.13067261693344664,0.1312520679707293,0.38122125550572394,1.3235279807847222,0.0
1.7022696929238985,0.45806418295753754,-0.6629793212330307,1.3147271312745614,0.2327555587832269,-0.07158309785086533,0.37083841129723394,0.12815900462639515,0.1286422179432944,0.37849752782587825,1.3267103019950528,0.0
1.7222963951935915,0.44452241817127197,-0.6770882393132774,1.3192484985755502,0.22606836504944197,-0.0637879033561146,0.38975972473753623,0.12639067340612942,0.1267773560759946,0.37574723588634806,1.329869693551513,0.0
1.7423230974632844,0.4307309670089494,-0.689572558116128,1.323584698968239,0.21681001963444096,-0.05569203888183245,0.40479322371410675,0.12538520942773235,0.12567885147514352,0.3729705727120911,1.3330059337171258,0.0
1.7623497997329773,0.4167214281891244,-0.7004769409912527,1.3277068259212106,0.2061063476485846,-0.04737036688029367,0.41608360007693884,0.1250279696944168,0.125226279567896,0.37016773317888907,1.336118802379758,0.0
1.7823765020026703,0.4025249106071547,-0.7098258790984868,1.3316049695854317,0.1949071832110615,-0.03889947981952767,0.4235443530383003,0.12520850051477148,0.12532488123216146,0.3673389139996707,1.339208081067569,0.0
1.8024032042723632,0.3881723558978913,-0.717627735463169,1.3352851413017681,0.18400858581682072,-0.030345138471769076,0.4277170673879297,0.12562782837014205,0.12567097050572365,0.3644843137107058,1.3422735529643444,0.0
