time,x,x_dot,z,z_dot,theta,theta_dot,u1,u2,x_ref,z_ref,theta_ref
0.0,0.9083022059240091,0.05358641812711987,0.6259707467882021,0.06539761718614898,0.13962882937247825,-0.030043432667085312,0.2800560708066998,0.2966828866039804,0.5,1.0,0.0
0.020026702269692925,0.9105630894095401,0.11304417427654778,0.6318198246685295,0.2924538940163708,0.15232941335696107,0.6350291992241411,0.29668275568063013,0.226041625000314,0.4999824541392403,1.0041887412073853,0.0
0.04005340453938585,0.913901757510122,0.16693340502909615,0.6414176000577645,0.47988876946175296,0.108521650638254,-2.190388135935351,0.05632337746426158,0.05937928047512353,0.4999298177883902,1.0083771884344908,0.0
0.06008010680907877,0.9175005268681689,0.1799384679023401,0.6487896399654872,0.3686019953861344,0.06715626484545235,-2.068269289640082,0.29668288651566116,0.289208869811857,0.49984209464164997,1.0125650477216688,0.0
0.0801068090787717,0.9220394030966093,0.2269438114220216,0.6608704966482214,0.6040428341367103,0.019816780461691812,-2.366974219188028,0.05632337504789717,0.056380247948929846,0.49971929085573213,1.0167520251505358,0.0
0.10013351134846463,0.926690324755225,0.2325460829307836,0.6706972729511864,0.49133881514825095,-0.02747725697674397,-2.364701871921789,0.14539964756709195,0.14418315132448078,0.4995614150494292,1.0209378268645999,0.0
0.12016021361815754,0.9314262571273609,0.2367966186068013,0.6808933224463962,0.5098024747604876,-0.07574340322462345,-2.413307312393973,0.12664724545261047,0.1351724298696071,0.49936847830300873,1.0251221590898847,0.0
0.14018691588785048,0.9360556238509177,0.23146833617783621,0.6910467177884031,0.5076697671003417,-0.11719734457580924,-2.0726970675592917,0.27384158881826615,0.2785681790467254,0.499140494157436,1.0293047281555483,0.0
0.1602136181575434,0.9400657105821898,0.20050433656360486,0.7054404971370045,0.7196889674300734,-0.15487326220336767,-1.883795881377922,0.2852603680211485,0.2966828866707771,0.4988774786134233,1.0334852405144925,0.0
0.1802403204272363,0.9430677057187034,0.15009975682567597,0.7244765174997537,0.9518010181374599,-0.18341764973489083,-1.4272193765761576,0.2883016516456152,0.29668288666553366,0.49857945013030697,1.0376634027639664,0.0
0.20026702269692925,0.9447328605655482,0.08325774234224285,0.7481552476435541,1.183936507190021,-0.2052597806169885,-1.0921065441048792,0.1198608827429977,0.1292817708122955,0.4982464296247522,1.0418389216661577,0.0
0.22029372496662217,0.9457248099845806,0.04959747095162448,0.7715430675141636,1.1693909935304734,-0.21956699877411798,-0.7153609078564722,0.29668288657906555,0.2966828859662114,0.4978784404692846,1.0460115041687736,0.0
0.24032042723631508,0.9449250453546097,-0.03998823149854652,0.7996169596662711,1.4036946076053745,-0.2338742174214805,-0.7153609323681323,0.18620709613280206,0.19131747816340458,0.4974755084906501,1.0501808574256075,0.0
0.260347129506008,0.9429070954025519,-0.10089749760288946,0.8292295319408653,1.4806286137297147,-0.2440935488681609,-0.5109665723340158,0.1885809421103282,0.19020961454457014,0.4970376619680023,1.0543466888170925,0.0
0.28037383177570097,0.9395886424378774,-0.16592264823372438,0.8603810421093103,1.557575508422249,-0.25301001040284543,-0.445823076734224,0.15987281214352023,0.16570848238332114,0.4965649316309177,1.0585087059708387,0.0
0.30040053404539385,0.935104478962669,-0.22420817376041982,0.8922929970250136,1.5955977457851653,-0.25725812132644427,-0.2124055461799448,0.13234305564030946,0.13725315470686358,0.49605735065723894,1.0626666167821521,0.0
0.3204272363150868,0.9296205358323509,-0.2741971565159034,0.9241518137012317,1.5929408338109035,-0.2575781884406824,-0.01600335571191072,0.11279398704307746,0.11499275776542213,0.49551495467074635,1.066820129434536,0.0
0.34045393858477974,0.9232779889882213,-0.31712734220647876,0.9553541942712729,1.560119028502059,-0.2561392390671445,0.07194746867690104,0.0929331787828383,0.09389453525194336,0.4949377817386579,1.0709689524201722,0.0
0.3604806408544726,0.9162303698902705,-0.3523809548975419,0.9853130818035427,1.4979443766134912,-0.2539312053145466,0.11040168762989147,0.07936207633479406,0.08060447686426284,0.49432587236895703,1.0751127945603784,0.0
0.38050734312416556,0.9085823485781344,-0.3824010656068068,1.0136445277415522,1.4165722969004786,-0.25072925356125914,0.16009758766437718,0.07110832726611516,0.07267878663736424,0.49367926950755014,1.0792513650260465,0.0
0.4005340453938585,0.9003992026855312,-0.4091572946301584,1.0401178432771592,1.3236657767803457,-0.24627094075141756,0.22291564049207657,0.06976893322310956,0.07117223694996747,0.49299801853525244,1.083384373358051,0.0
0.4205607476635514,0.8916979978173213,-0.4350602434104961,1.0646938874877994,1.2288022105320051,-0.24068999611720765,0.27904723171049645,0.06516413174449494,0.06744850631910917,0.49228216726460267,1.087511529487638,0.0
0.44058744993324434,0.882517837130544,-0.4590080343388623,1.0872552870307433,1.1280699771471894,-0.2332815802837463,0.3704207916730663,0.06560177076608344,0.06686814670391068,0.4915317659365077,1.09163254375678,0.0
0.4606141522029373,0.8728698657220608,-0.4823985704241576,1.107802631815601,1.0273672392428856,-0.2248600915017235,0.4210744391011414,0.062144464409320664,0.06379961840616094,0.49074686721671645,1.0957471269385064,0.0
0.48064085447263016,0.8627905657678175,-0.5039649977121641,1.1262452749541099,0.9221321569254517,-0.21511452647633497,0.4872782512694273,0.06261704423719253,0.06392653211306394,0.48992752619212343,1.0998549902572035,0.0
0.5006675567423231,0.8522932596145976,-0.5248653076610008,1.1425954422599935,0.8175083652941884,-0.2043214208978435,0.5396552789245745,0.06393986381057505,0.06487335251417652,0.48907380036690284,1.1039558454088796,0.0
0.520694259012016,0.8413885996669885,-0.5452329973804488,1.1568899699121413,0.7147263826073855,-0.1927815678533094,0.5769926522267037,0.06087912485237192,0.06206106025922385,0.48818574965847245,1.108049404581401,0.0
0.540720961281709,0.83011438563412,-0.5637107016434256,1.169047947838004,0.6078988962931322,-0.18029622944108334,0.6242669206113057,0.06275958350157071,0.06404481258716019,0.48726343639328856,1.1121353804746905,0.0
0.5607476635514019,0.818480254376257,-0.5817065628931455,1.1791297088599129,0.5040880510954383,-0.16678278789783796,0.6756720771622675,0.07010984639583598,0.07014967066819161,0.48630692530247177,1.116213486320892,0.0
0.5807743658210948,0.8064735086276311,-0.6003372874312942,1.187335706869422,0.4102999004754516,-0.15323748984563743,0.6772649026100284,0.056323378775155905,0.057407854627126005,0.4853162835172637,1.1202834359044958,0.0
0.6008010680907877,0.7941870503564785,-0.614322913557629,1.193283232202711,0.29737626666444755,-0.1388246907003697,0.720639957263384,0.08351778753886961,0.08382806482971047,0.48429158056431554,1.1243449435824273,0.0
0.6208277703604806,0.7815221710994247,-0.6332439628526944,1.197760904338287,0.22388360677880795,-0.12416369550339221,0.7330497598488765,0.07732546216706766,0.07793016691033644,0.4832328883608088,1.128397724304094,0.0
0.6408544726301736,0.7685390081229437,-0.6491581488240498,1.200596531498025,0.1417813579868874,-0.10901898850211963,0.7572353500636272,0.07925873733668064,0.07956507165155983,0.48214028120940733,1.1324414936313905,0.0
0.6608811748998665,0.7552644448440722,-0.663728163943578,1.2018469900295934,0.06252292657842486,-0.09362924215300544,0.7694873174557108,0.12701131287313702,0.1271892126822122,0.48101383579304297,1.1364759677586627,0.0
0.6809078771695595,0.7415801360551169,-0.6842154394477649,1.2029210251050066,0.053701753770667465,-0.07809719281012024,0.7766024671442598,0.07781837666290355,0.0766410965486626,0.47985363116953333,1.1405008635326255,0.0
0.7009345794392524,0.7276818894474749,-0.694912330382097,1.2023533259314818,-0.028384958676239982,-0.06350685395594388,0.7295169427088173,0.1426497648767754,0.1432233736192287,0.4786597487660336,1.144515898472236,0.0
0.7209612817089452,0.7134532250378874,-0.7114332204793724,1.2020878754521054,-0.013272523968825691,-0.04845767695040842,0.7524588502767741,0.125150516391482,0.12442663486955964,0.4774322723733215,1.1485207907885173,0.0
0.7409879839786382,0.6989899056982489,-0.7231659669819283,1.2015924106472087,-0.024773240244835265,-0.033987539586431324,0.7235068681988543,0.05632337507580197,0.05647859678770242,0.4761712881399164,1.1525152594043386,0.0
0.7610146862483311,0.6844456384685776,-0.7272133614835651,1.1988461245160613,-0.13731430655736662,-0.019393238234771168,0.7297150675830077,0.16864220146280584,0.16794796933297199,0.47487688456603344,1.156499023974139,0.0
0.7810413885180241,0.6697319242846131,-0.7356857091982265,1.1971634796139823,-0.08413224510395426,-0.005354263441218877,0.7019487396776147,0.1427025185441096,0.14308887679191443,0.47354915249737217,1.1604718049036047,0.0
0.801068090787717,0.6549361053124046,-0.7397909486104249,1.1957939851456616,-0.06847472341603891,0.008993767491703953,0.7174015466461413,0.12573557218847403,0.12432101401783413,0.4721881851187405,1.1644333233692916,0.0
0.82109479305741,0.6401204513410758,-0.7407826985664425,1.19420897959418,-0.07925027757408645,0.022210268369884774,0.6608250439090407,0.057298970385932235,0.05632346957120894,0.4707940779475151,1.1683833013381941,0.0
0.8411214953271028,0.6253199363331603,-0.7400257503957728,1.1903872013708532,-0.19108891116633325,0.03464643675388616,0.6218084192000691,0.1930292209772717,0.19402489669657697,0.46936692882693704,1.1723214615872586,0.0
0.8611481975967957,0.6106467675336675,-0.7336584399746402,1.188378143969306,-0.10045287007736009,0.04787908411832625,0.6616323682220054,0.17306579641455475,0.171891985807384,0.4679068379192454,1.1762475277228392,0.0
0.8811748998664887,0.5961506234314827,-0.7248072051092376,1.18755650528602,-0.04108193416430487,0.06017276521091318,0.6146840546293462,0.08661955540318825,0.08492783132893783,0.46641390769864727,1.1801612242000974,0.0
0.9012016021361816,0.5817761147958673,-0.718725431780769,1.1853533969153693,-0.11015541853253435,0.0711131693140247,0.5470202051555757,0.14873332521138205,0.1492657231916203,0.46488824294412573,1.184062276342339,0.0
0.9212283044058746,0.5676670966465875,-0.705450907463987,1.183637099202463,-0.0858148856453195,0.08247946631197525,0.568314849897528,0.12037468899433859,0.11917781240150088,0.4633299507320861,1.1879504103602934,0.0
0.9412550066755675,0.5538102412089501,-0.6928427718818727,1.1815407576109433,-0.1048170795759814,0.09288832388608075,0.5204428787052733,0.1052401474331357,0.10211599424511417,0.4617391404288412,1.1918253533713281,0.0
0.9612817089452603,0.5402064707989286,-0.6801885205010711,1.1785859157791891,-0.14774209158770693,0.10079799430224265,0.3954835208080959,0.13138113508412064,0.13091284340722445,0.4601159236829352,1.1956868334186013,0.0
0.9813084112149533,0.5269631304135146,-0.6621670192707005,1.1755801587486965,-0.1502878515246382,0.10833304309589803,0.37675243968276884,0.18084052581180404,0.17919993848711857,0.4584604144173082,1.1995345794901475,0.0
1.0013351134846462,0.5142565297776095,-0.6353300317952557,1.1739612604503968,-0.08094491491497713,0.11455565928865322,0.3111308096377598,0.17949340079149678,0.1779003958853453,0.45677272882130043,1.2033683215379,0.0
1.0213618157543392,0.5021224012920895,-0.6067064242760006,1.1736860458783693,-0.013760728601373354,0.11950389622947441,0.24741184704105898,0.23816673170953243,0.23781004473226472,0.45505298534249783,1.2071877904966422,0.0
1.041388518024032,0.49079429731887336,-0.5664051986608076,1.1764961212166072,0.1405037669118946,0.12416678708187356,0.23314454261995646,0.2247127604858687,0.2235949838279651,0.45330130467841884,1.2109927183028915,0.0
1.061415220293725,0.4802580021644694,-0.5268147577201993,1.181980424260836,0.2742151522114414,0.12793546632925862,0.18843396236925467,0.15585032559077466,0.1537417476761616,0.4515178097680436,1.2147828379137142,0.0
1.081441922563418,0.47028974185997185,-0.4984130152248771,1.188095965629014,0.3057770684089016,0.13001729522414407,0.10409144474426973,0.1486757949099144,0.14787760619658435,0.44970262578318554,1.2185578833254664,0.0
1.101468624833111,0.4608820191272995,-0.4703861366336184,1.1946489854128104,0.3276509891898165,0.13146057453210855,0.07216396539822642,0.12116235875942982,0.11925676067803677,0.44785588011970645,1.2223175895924638,0.0
1.1214953271028039,0.4519360837935759,-0.4472967666861782,1.2008137073934504,0.30823609903199567,0.13137937696274476,-0.004059878468188949,0.0658461550423875,0.06421896685334137,0.4459777023885754,1.2260616928455754,0.0
1.1415220293724968,0.4432427296351026,-0.4346677079236662,1.204968693884421,0.20774932454853443,0.1299964288464354,-0.06914740581547203,0.16316146077681692,0.16247999453851888,0.44406822440677224,1.229789930310744,0.0
1.1615487316421895,0.43518136958971493,-0.4030680022693824,1.20998642291726,0.25088645164194745,0.1280683082608214,-0.09640602928069443,0.20701173098970552,0.20642491355065756,0.44212758018803616,1.2335020403274277,0.0
1.1815754339118825,0.4279139953362513,-0.36336871267318166,1.21715745881805,0.3585517950394991,0.1256707345966014,-0.11987868321100173,0.1607234879430104,0.15952711371115752,0.4401559059334601,1.2371977623669645,0.0
1.2016021361815754,0.42125257559656454,-0.3330709869843372,1.2251140931708915,0.39783171764206704,0.12231606429777349,-0.16773351494139904,0.07071327275856211,0.07017445026125492,0.4381533400219318,1.2408768370508576,0.0
1.2216288384512684,0.41485276913553987,-0.31999032305123465,1.2312214928145686,0.3053699821838538,0.11853033842662049,-0.1892862935576501,0.11608867379211107,0.11632723521221675,0.43612002300042185,1.244539006168978,0.0
1.2416555407209613,0.4088730717933751,-0.29898486710823635,1.2368263659818894,0.28024365836604576,0.1149354603239554,-0.179743905133252,0.09855246022435588,0.09812321716038849,0.4340560975741196,1.2481840126976884,0.0
1.2616822429906542,0.4032379298007016,-0.2817570996336747,1.241404508815897,0.22890714170036974,0.11099718998898282,-0.1969135167486278,0.15346887454027597,0.15293571522339014,0.43196170859641764,1.2518116008178803,0.0
1.2817089452603472,0.3981233695454746,-0.2557280127613505,1.2465720292776379,0.2583760230870525,0.10663239550821202,-0.21823972403854106,0.11468260486185912,0.1143390470863227,0.42983700305874556,1.2554215159329298,0.0
1.3017356475300401,0.39338464029871645,-0.236936462337909,1.2511915835672693,0.2309777144815683,0.10199275742511482,-0.23198190415486086,0.12794524615173727,0.12768825396161088,0.4276821300802533,1.2590135046865651,0.0
1.321762349799733,0.389048980448625,-0.2167829925045703,1.2556567903079678,0.22326033703492648,0.09714752780274294,-0.24226148111859477,0.12025083014978052,0.12012835436129363,0.4254972408973459,1.262587314980648,0.0
1.341789052069426,0.385075905067116,-0.1986537690754522,1.2597446636119847,0.20439366520084518,0.09220431869968816,-0.24716045515273863,0.1274114640438347,0.12726127093734385,0.4232824888530689,1.266142695992867,0.0
1.361815754339119,0.3814687841910448,-0.18035604380355982,1.263667676542051,0.19615064650330763,0.08714095657944418,-0.2531681060122,0.12366948611954195,0.12345424003400202,0.42103802938634616,1.2696793981943417,0.0
1.3818424566088119,0.3781987537197483,-0.1635015235648249,1.267316230096463,0.18242767772061183,0.08190539979812377,-0.26177783906602015,0.12650620239763627,0.12623960484832203,0.4187640200210709,1.2731971733671346,0.0
1.4018691588785048,0.37525459951469625,-0.14720771025260185,1.2707749584040327,0.17293641537848115,0.07645656790043331,-0.27244159488452196,0.13200466664728744,0.13189286459017,0.4164606203550497,1.276695774621672,0.0
1.4218958611481975,0.37263030418321014,-0.13121476657430525,1.274210173354669,0.1717607475318112,0.07091829568479652,-0.2769136107818392,0.13005875183262391,0.13048561855142277,0.4141279920488021,1.2801749564140723,0.0
1.4419225634178905,0.37030083738924496,-0.11647333969825815,1.2775740286209436,0.16819276331373276,0.06572151160699145,-0.25983920389025295,0.13867403599684655,0.13831373546193876,0.4117662988142137,1.283634474563378,0.0
1.4619492656875834,0.3682621415429131,-0.10193479231659444,1.2811110916138513,0.17685314964538626,0.06023649099344328,-0.27425103067740797,0.1393155535709632,0.1391039553928716,0.40937570640304727,1.287074086268695,0.0
1.4819759679572764,0.3664943343076697,-0.08839036176216894,1.2848439832629355,0.18664458245420515,0.05458219438382617,-0.2827148304808564,0.1417972885648862,0.14197039287474,0.4069563825953091,1.2904935501262298,0.0
1.5020026702269693,0.36497960609989105,-0.07573641038893143,1.2888532159611108,0.20046163490876243,0.04906637900836593,-0.2757907687730108,0.1289103717185439,0.12906065279207454,0.4045084971874737,1.2938926261462367,0.0
1.5220293724966623,0.36367337617521966,-0.0653114962335704,1.2927585500549879,0.19526670469385626,0.04367078666286114,-0.26977961727523964,0.11094527322864824,0.11018234181041026,0.4020322219805673,1.2972710757698567,0.0
1.5420560747663552,0.36252782148522267,-0.057277734499848895,1.296015906149097,0.16286780470545453,0.037664858067055336,-0.3002964297902902,0.11636246720141845,0.11641648946584908,0.3995277307681099,1.3006286618858631,0.0
1.5620827770360481,0.3615328210063647,-0.04975002394289889,1.2987985514460378,0.1391322648470437,0.03170214650333767,-0.2981355781858832,0.10963458286629686,0.10997533604217594,0.3969951993239177,1.3039651488473027,0.0
1.582109479305741,0.36066033342870496,-0.04362437888298709,1.3009123695347886,0.10569090443754373,0.02601203263429192,-0.28450569345228754,0.10398263535827883,0.10473968692840803,0.39443480538976705,1.3072803024880322,0.0
1.602136181575434,0.3598858582559071,-0.038723758639894926,1.3021968164439952,0.06422234546032947,0.020927550216832593,-0.254224120872966,0.1117787588080531,0.11218716304101749,0.39184672866291986,1.3105738901391553,0.0
1.622162883845127,0.35919768162989724,-0.03440883130049102,1.302878154546626,0.03406690513154077,0.01616978696253368,-0.23788816271494564,0.1302686274013965,0.13055227697114627,0.3892311507835117,1.3138456806453502,0.0
1.64218958611482,0.35859036343585504,-0.030365909702108354,1.30350265993204,0.031225269270702544,0.011638940795727465,-0.22654230834031072,0.14098435807830667,0.14126595683555157,0.38658825532180363,1.3170954443810947,0.0
1.6622162883845129,0.358050656035629,-0.026985370011300816,1.3043881048263495,0.04427224471546812,0.007333371322393553,-0.21527847366669559,0.12257583790809115,0.12299686390948222,0.3839182277652987,1.3203229532667808,0.0
1.6822429906542056,0.35755329147402254,-0.0248682280803254,1.3049914174059822,0.030165628981640567,0.0033646195281974204,-0.19843758970980663,0.1578648878271447,0.15803442943033993,0.38122125550572394,1.3235279807847222,0.0
1.7022696929238985,0.35709024670841777,-0.023152238280238168,1.3063545940304433,0.06815883122305141,-0.000468500051620427,-0.19165597899089235,0.1543847217179176,0.1547680210068694,0.37849752782587825,1.3267103019950528,0.0
1.7222963951935915,0.3566426120078912,-0.022381735026328523,1.3083777853633367,0.10115956664467167,-0.003994982452970854,-0.1763241200675213,0.15355530229408493,0.15347534338195468,0.37574723588634806,1.329869693551513,0.0
1.7423230974632844,0.3561928462870967,-0.022488286039725688,1.3110295783552022,0.13258964959327105,-0.00758543158627576,-0.17952245666524533,0.13137218416609567,0.1321014780606537,0.3729705727120911,1.3330059337171258,0.0
1.7623497997329773,0.35572748693878226,-0.02326796741572199,1.3136646537133623,0.13175376790800966,-0.010592449364556052,-0.1503508889140148,0.12099800249848307,0.12133732270851105,0.37016773317888907,1.336118802379758,0.0
1.7823765020026703,0.3552348949919165,-0.024629597343286035,1.31596977875155,0.11525625190939386,-0.013328012202087534,-0.13677814187657408,0.1494509002671885,0.14935333161322992,0.3673389139996707,1.339208081067569,0.0
1.8024032042723632,0.354695414015278,-0.026974048831926403,1.3187813848137706,0.14058030311102457,-0.01614162967073173,-0.14068087343220967,0.13319696338356582,0.1337283972417392,0.3644843137107058,1.3422735529643444,0.0
