time,x,x_dot,z,z_dot,theta,theta_dot,u1,u2,x_ref,z_ref,theta_ref
0.0,0.48360398928512116,0.05073376342392158,0.9651805382294835,-0.07925499407042161,0.1867407399302935,-0.035849935824143794,0.19816902438106554,0.1898564435748591,0.5,1.0,0.0
0.020026702269692925,0.4856850320854447,0.10405214001617877,0.9653254105555104,0.007243616301344666,0.17937427073129178,-0.36832345995008786,0.07027726269838966,0.0563233749558503,0.4999824541392403,1.0041887412073853,0.0
0.04005340453938585,0.48811244872059145,0.12137083175733725,0.9633931123803878,-0.09661490875612767,0.1608530584667803,-0.9260606132255731,0.29125760036189097,0.2861271864297685,0.4999298177883902,1.0083771884344908,0.0
0.06008010680907877,0.4920637478350162,0.19756495572123844,0.9659592065247297,0.1283047072170917,0.1382567573830116,-1.1298150541884353,0.16879570157326654,0.1693486811165198,0.49984209464164997,1.0125650477216688,0.0
0.0801068090787717,0.4968134717706578,0.23748619678207947,0.9695476424525225,0.17942179638963804,0.11614122775260978,-1.105776481520091,0.14308950634069115,0.14304293147492453,0.49971929085573213,1.0167520251505358,0.0
0.10013351134846463,0.5021424698816871,0.26644990555146353,0.9734109026564913,0.19316301019844243,0.09402570362997258,-1.1057762061318608,0.25633783550597755,0.2575967478455378,0.4995614150494292,1.0209378268645999,0.0
0.12016021361815754,0.5083480965164946,0.310281331740377,0.980912607742077,0.37508525427928363,0.07295431937197498,-1.0535692128998793,0.08965434336816991,0.08951832610393187,0.49936847830300873,1.0251221590898847,0.0
0.14018691588785048,0.5147955571554805,0.32237303194929545,0.9871280750290575,0.3107733643490258,0.05180876269454986,-1.0572778338712552,0.08709596820531254,0.08673966786503927,0.499140494157436,1.0293047281555483,0.0
0.1602136181575434,0.521423265965439,0.3313854404979203,0.9919848358067804,0.24283803888614391,0.030413031295463036,-1.0697865699543412,0.17301093038950868,0.17333696445724545,0.4988774786134233,1.0334852405144925,0.0
0.1802403204272363,0.5283092102795311,0.34429721570460886,0.9980403100835104,0.302773713836495,0.009313495129653484,-1.054976808290478,0.16468271458522488,0.16602438762429952,0.49857945013030697,1.0376634027639664,0.0
0.20026702269692925,0.5353361016884666,0.35134457044676837,1.005065817696728,0.35127538066088543,-0.010678254270815845,-0.9995874700234664,0.29571365530124644,0.29668285401013506,0.4982464296247522,1.0418389216661577,0.0
0.22029372496662217,0.5424363149925922,0.35501066520627667,1.0169387764868527,0.5936479395062417,-0.029862819442320856,-0.9592282585752505,0.1507617994243898,0.15008025419695195,0.4978784404692846,1.0460115041687736,0.0
0.24032042723631508,0.5494793279326127,0.35215064700102516,1.0293323320940841,0.6196777803615765,-0.04956245090933765,-0.98498157335084,0.2964551933939693,0.29668280547834214,0.4974755084906501,1.0501808574256075,0.0
0.260347129506008,0.5562503180936534,0.33854950805203793,1.0465722177964467,0.861994285118123,-0.0690487453163093,-0.9743147203485825,0.08222693993280589,0.08151156581627686,0.4970376619680023,1.0543466888170925,0.0
0.28037383177570097,0.5628906978251463,0.3320189865746453,1.0622883158815766,0.7858049042564983,-0.08907645270281132,-1.0013853693251016,0.056323377136616434,0.057931441792812566,0.4965649316309177,1.0585087059708387,0.0
0.30040053404539385,0.569404450019735,0.32568760972943817,1.0757497460668153,0.6730715092619365,-0.10778589983173689,-0.9354723564462772,0.05632337490493248,0.05866837978072496,0.49605735065723894,1.0626666167821521,0.0
0.3204272363150868,0.5757575463954654,0.31765481878651436,1.0869691821108425,0.5609718022013606,-0.12459070261660078,-0.8402401392431944,0.056323376380718757,0.0592601453368164,0.49551495467074635,1.066820129434536,0.0
0.34045393858477974,0.5819180739442373,0.30802637743859473,1.0959562676123353,0.44935427507464276,-0.13902168207030116,-0.7215489726850193,0.05632338358848929,0.059105782071692245,0.4949377817386579,1.0709689524201722,0.0
0.3604806408544726,0.5878584810932406,0.29702035745016314,1.1027090529276173,0.3376392657641048,-0.15120709960089793,-0.6092708765298368,0.05632337516744496,0.05829472675899333,0.49432587236895703,1.0751127945603784,0.0
0.38050734312416556,0.5935566933082753,0.2849106107517388,1.1072156699655964,0.2253308518989571,-0.1617998655414364,-0.5296382970269261,0.056323377056957565,0.058571957950626086,0.49367926950755014,1.0792513650260465,0.0
0.4005340453938585,0.5989922930760341,0.271779988387938,1.1094801035943194,0.1132216814361472,-0.17058090520835087,-0.4390519833457219,0.100547352618428,0.1016948368911172,0.49299801853525244,1.083384373358051,0.0
0.4205607476635514,0.6039395948979431,0.24736509109545388,1.1107792395896907,0.06495679976856764,-0.17843388375054442,-0.39264892710967747,0.15405886002456404,0.1552009167153182,0.49228216726460267,1.087511529487638,0.0
0.44058744993324434,0.6081041733569033,0.20822892294800727,1.112672200543029,0.09464804766691039,-0.1853644959583942,-0.3465306103924911,0.22649407926150164,0.2282908876180189,0.4915317659365077,1.09163254375678,0.0
0.4606141522029373,0.6110688192833119,0.148232296320435,1.1172738827543818,0.23008411056763833,-0.19085023017858493,-0.2742867110095386,0.21889165830209065,0.21979102827473607,0.49074686721671645,1.0957471269385064,0.0
0.48064085447263016,0.6128326469659636,0.08819138413258479,1.1243385452787407,0.3532331262179472,-0.19561088692818063,-0.23803283747978551,0.25773905494333155,0.2577921524191231,0.48992752619212343,1.0998549902572035,0.0
0.5006675567423231,0.6131457639090612,0.015655847154876085,1.134974326048221,0.5317890384740126,-0.2003243510990978,-0.235673208545859,0.1326143221055006,0.13334724938795445,0.48907380036690284,1.1039558454088796,0.0
0.520694259012016,0.6126926624877411,-0.02265507106600126,1.145542100321085,0.5283887136432013,-0.20444682051633092,-0.20612347086165356,0.05632337568688778,0.0583866573193734,0.48818574965847245,1.108049404581401,0.0
0.540720961281709,0.6119019548252801,-0.03953538312304987,1.1538423724428335,0.4150136060874229,-0.2069147008879325,-0.12339401858007985,0.05632338129429539,0.059565567030734734,0.48726343639328856,1.1121353804746905,0.0
0.5607476635514019,0.6107635743235762,-0.05691902508519673,1.159894352840498,0.30259901988321647,-0.20678662264731645,0.00640391203080308,0.05632462755908955,0.05998566527948362,0.48630692530247177,1.116213486320892,0.0
0.5807743658210948,0.6092723856964496,-0.07455943135633056,1.1637063612997103,0.19060042296061497,-0.20372981737315904,0.15284026370786896,0.11054094865747742,0.11284257605428989,0.4853162835172637,1.1202834359044958,0.0
0.6008010680907877,0.6071031642170152,-0.10846107397172049,1.1668335774949665,0.15636080976280875,-0.19883453799065703,0.2447639691250998,0.18358619480676974,0.18548278055919698,0.48429158056431554,1.1243449435824273,0.0
0.6208277703604806,0.6038297669640448,-0.16366986264851888,1.1713924257973154,0.22794241511744479,-0.19242688295971377,0.32038275154716356,0.1798590389179601,0.17977979411530287,0.4832328883608088,1.128397724304094,0.0
0.6408544726301736,0.5995073030253188,-0.21612319693629742,1.1772496114767383,0.2928592839711472,-0.18608939091503934,0.3168746022337213,0.12607572411423595,0.12622075131703922,0.48214028120940733,1.1324414936313905,0.0
0.6608811748998665,0.594474747248869,-0.2516277888224939,1.1828491443062044,0.27997664147330364,-0.1796425559837554,0.3223417465641981,0.08003688324764924,0.0814728689510722,0.48101383579304297,1.1364759677586627,0.0
0.6809078771695595,0.5890050354867161,-0.27348558810763973,1.1868739383491425,0.2012397021469043,-0.17205377629745996,0.3794389843147744,0.15982980711640696,0.16114916904289714,0.47985363116953333,1.1405008635326255,0.0
0.7009345794392524,0.5826915282760523,-0.3156753605331908,1.1916531401838895,0.23896009173734944,-0.16341791206907155,0.4317932114194186,0.12063641878546048,0.12018202244504304,0.4786597487660336,1.144515898472236,0.0
0.7209612817089452,0.5757742626846357,-0.34586327957083174,1.1960220095233878,0.21844346697491526,-0.15515544317508628,0.4131234446992645,0.07818576280581954,0.0780562382398628,0.4774322723733215,1.1485207907885173,0.0
0.7409879839786382,0.5684882131528187,-0.36430247659085063,1.198749811597872,0.136390103724218,-0.14700593110750834,0.4074756033788978,0.1788606905828488,0.17992857928489453,0.4761712881399164,1.1525152594043386,0.0
0.7610146862483311,0.5603888520804798,-0.4049680536169452,1.2028061280490139,0.20281582255708774,-0.13801131263880104,0.44973092343536286,0.05632348121482007,0.05632354329205229,0.47487688456603344,1.156499023974139,0.0
0.7810413885180241,0.5520544577528897,-0.4167197163795034,1.2045885744788627,0.0891223214924397,-0.1290270763313146,0.4492118153743222,0.1936923921453037,0.19421614884665916,0.47354915249737217,1.1604718049036047,0.0
0.801068090787717,0.5429389651713296,-0.4557746290780075,1.2081411373681394,0.17762814446383435,-0.11963426762184787,0.4696404354733358,0.05636799180289681,0.05632340919344278,0.4721881851187405,1.1644333233692916,0.0
0.82109479305741,0.5336195183699128,-0.46597234007083804,1.2094250925566765,0.06419775942685206,-0.11028816666757708,0.46730504771353976,0.19616945129168725,0.1972001817711808,0.4707940779475151,1.1683833013381941,0.0
0.8411214953271028,0.5236155034990857,-0.5002007435413541,1.2125735813621443,0.15742444027339197,-0.10012848820764868,0.5079839229964196,0.05632337655500888,0.05736583157611155,0.46936692882693704,1.1723214615872586,0.0
0.8611481975967957,0.5134383083204889,-0.5088597589298411,1.2134722821148047,0.04493503763302531,-0.08914714527611195,0.5490671465768378,0.1823443223583694,0.18478298974334986,0.4679068379192454,1.1762475277228392,0.0
0.8811748998664887,0.5027297324098254,-0.535428795533169,1.2158615780022772,0.1194647943736255,-0.07622859473660817,0.6459275269751883,0.056406422955380564,0.056323423958720586,0.46641390769864727,1.1801612242000974,0.0
0.9012016021361816,0.49188573807896063,-0.5421997165432388,1.2159913538409093,0.00648879193159993,-0.06339344825183643,0.6417573242385884,0.25043473520575954,0.254147654924873,0.46488824294412573,1.184062276342339,0.0
0.9212283044058746,0.480485843462864,-0.5699947308048332,1.2196545560306886,0.18316010948897074,-0.04760506841265857,0.7894189919588925,0.05771542923777642,0.056323374936992104,0.4633299507320861,1.1879504103602934,0.0
0.9412550066755675,0.4689934996412752,-0.5746171910794415,1.2210791432943093,0.07122936318104073,-0.03295279434463025,0.7326137034014163,0.0638692771057864,0.06573222975183093,0.4617391404288412,1.1918253533713281,0.0
0.9612817089452603,0.4574243048128136,-0.5784597414230783,1.2204997781186044,-0.02896825878524474,-0.016830627523396265,0.8061083410616992,0.07922894611172454,0.08178517152584877,0.4601159236829352,1.1956868334186013,0.0
0.9813084112149533,0.4457911347160811,-0.5816585048366244,1.2183852442011731,-0.10572669587157016,0.0013129591614341966,0.9071793342415229,0.1626175631698053,0.16341967324095458,0.4584604144173082,1.1995345794901475,0.0
1.0013351134846462,0.4340914819353659,-0.5849826390357608,1.2171828991561502,-0.06011725225114871,0.02007044582927907,0.9378743333922437,0.11465556830125717,0.11448299677336554,0.45677272882130043,1.2033683215379,0.0
1.0213618157543392,0.4224111500177936,-0.5840165958786134,1.2154567241139562,-0.086308752109697,0.038660819840425256,0.9295187005573089,0.05632338603221753,0.058341611989462576,0.45505298534249783,1.2071877904966422,0.0
1.041388518024032,0.4107797710377634,-0.5815689490015102,1.2115111438402784,-0.19727901368389494,0.05883679924542452,1.0087989702499636,0.05933096519290853,0.05632346991546858,0.45330130467841884,1.2109927183028915,0.0
1.061415220293725,0.3992296365073764,-0.5775067265193495,1.2053627771980555,-0.307418332111143,0.07657484852787816,0.8869024641226813,0.10006422036080986,0.09644992443158039,0.4515178097680436,1.2147828379137142,0.0
1.081441922563418,0.387865981239363,-0.56818276340067,1.1982088301749516,-0.35769735115519435,0.09139513995900435,0.7410145715563115,0.12387995220684496,0.119907678508371,0.44970262578318554,1.2185578833254664,0.0
1.101468624833111,0.37679381332382916,-0.5536083957766913,1.1907455337342605,-0.3731648220345579,0.10301731954048361,0.581108979073963,0.15455700018393997,0.15091614000665274,0.44785588011970645,1.2223175895924638,0.0
1.1214953271028039,0.36614945254571285,-0.5322180389058159,1.18387883425299,-0.3433349740635266,0.11171230694801339,0.4347493703764893,0.22251998439925957,0.22084141310099048,0.4459777023885754,1.2260616928455754,0.0
1.1415220293724968,0.3561944547719798,-0.4977498886866521,1.1796346018191262,-0.2122116216931956,0.11905450797654457,0.36711005142655745,0.2527278319627518,0.2503106954812434,0.44406822440677224,1.229789930310744,0.0
1.1615487316421895,0.34708252710962034,-0.4555963831179731,1.1788815712080463,-0.037651530553997864,0.12445502186346989,0.2700256943462668,0.221766174370278,0.21814726397908166,0.44212758018803616,1.2335020403274277,0.0
1.1815754339118825,0.3387552960923377,-0.41636155086413396,1.1806805214987919,0.08994751453728381,0.12695496262334408,0.12499703799370801,0.2499578504366884,0.2480699930851527,0.4401559059334601,1.2371977623669645,0.0
1.2016021361815754,0.3313534487464525,-0.37009236729425804,1.1858785429978973,0.2599010749552685,0.12794237228069716,0.04937048286765586,0.2484595525592851,0.24572664281018267,0.4381533400219318,1.2408768370508576,0.0
1.2216288384512684,0.32488717843083176,-0.32331351578103823,1.1944128810977768,0.4267169049939773,0.12674262627775815,-0.05998730014694882,0.23589399788794543,0.2339841407843792,0.43612002300042185,1.244539006168978,0.0
1.2416555407209613,0.3193170497891281,-0.2785064320851809,1.2059209973377676,0.5754058119995376,0.1240160130639767,-0.1363306606890753,0.19228461718352807,0.19135289796966812,0.4340560975741196,1.2481840126976884,0.0
1.2616822429906542,0.3144726429495869,-0.24222034197706138,1.2191319523782962,0.6605477520264255,0.12054650591712243,-0.17347535734271197,0.1563714005458853,0.1555309088399897,0.43196170859641764,1.2518116008178803,0.0
1.2817089452603472,0.3102064205933378,-0.21331111781245304,1.232990189694701,0.6929118658202404,0.11640786655734697,-0.20693196798877486,0.11124327570696732,0.11083869397960572,0.42983700305874556,1.2554215159329298,0.0
1.3017356475300401,0.3063417362263138,-0.19323421835120033,1.2461755298037904,0.6592670054544709,0.11194956063243143,-0.22291529624577652,0.056607407489331484,0.05660919901115225,0.4276821300802533,1.2590135046865651,0.0
1.321762349799733,0.3026770759232197,-0.18323301515470503,1.2570890065817346,0.5456738388972138,0.10749704961504009,-0.22262555086956626,0.08431389556514891,0.08420013026749992,0.4254972408973459,1.262587314980648,0.0
1.341789052069426,0.29929593402185733,-0.16905709506811645,1.2665496034418116,0.47302984300384543,0.10295788226457124,-0.22695836752344273,0.0565169446270173,0.056323374905143435,0.4232824888530689,1.266142695992867,0.0
1.361815754339119,0.2960982136267306,-0.15988601975633684,1.2737408888699855,0.35956427140869496,0.09826831674551216,-0.2344782759529543,0.12114707549124816,0.12022337595531243,0.42103802938634616,1.2696793981943417,0.0
1.3818424566088119,0.29327157080167454,-0.1413321412528047,1.2805610800404286,0.3410095585221555,0.09284443105660084,-0.2711942844455651,0.1022985300120908,0.10217174549832025,0.4187640200210709,1.2731971733671346,0.0
1.4018691588785048,0.29074521849924767,-0.1263176151213436,1.2864683760932116,0.2953648026391492,0.08732463509846188,-0.2759897979069502,0.15290476574729644,0.1525640716108711,0.4164606203550497,1.276695774621672,0.0
1.4218958611481975,0.28864109730755827,-0.10520605958447024,1.2929554014848037,0.3243512695796023,0.08153792254583703,-0.28933562763124004,0.13749486186206272,0.13742711589451123,0.4141279920488021,1.2801749564140723,0.0
1.4419225634178905,0.2868944476345114,-0.0873324836523433,1.2995728665125275,0.3308732513861919,0.07570298293818163,-0.2917469803827716,0.05650552822766548,0.05632338290680752,0.4117662988142137,1.283634474563378,0.0
1.4619492656875834,0.28528581632945216,-0.08043156525296151,1.3039292118894563,0.21781726884644342,0.06972835936675889,-0.2987311785711364,0.11962646021831735,0.12042491260881528,0.40937570640304727,1.287074086268695,0.0
1.4819759679572764,0.28394773743999174,-0.0669039444730215,1.3079073939585852,0.1989091034564449,0.06439869385089651,-0.26648327579311837,0.11389792917932251,0.11398543732393178,0.4069563825953091,1.2904935501262298,0.0
1.5020026702269693,0.2828461693661972,-0.05507840368972705,1.3113295715422446,0.17110887918297205,0.059144433802117105,-0.2627130024389702,0.17186522827642414,0.17100836124180047,0.4045084971874737,1.2938926261462367,0.0
1.5220293724966623,0.28207253506636737,-0.038681714991493366,1.3158975985784893,0.22840135181223176,0.05320999728578037,-0.29672182581683754,0.10386828099849278,0.10541960366941458,0.4020322219805673,1.2972710757698567,0.0
1.5420560747663552,0.281482937091689,-0.029479898733920637,1.3196362644868427,0.18693329541766995,0.04852275330328602,-0.23436219912471717,0.1419608031901156,0.14270283655459237,0.3995277307681099,1.3006286618858631,0.0
1.5620827770360481,0.2811181934634894,-0.018237181409979923,1.3236626438210455,0.20131896671014185,0.04443375809664844,-0.20444976033187895,0.06266056896770729,0.062241407615699754,0.3969951993239177,1.3039651488473027,0.0
1.582109479305741,0.28084355187152227,-0.013732079598353961,1.3256133726640273,0.09753644214908956,0.04001337660308149,-0.22101907467834792,0.13648205428799418,0.13687167570606268,0.39443480538976705,1.3072803024880322,0.0
1.602136181575434,0.28074903514686605,-0.004725836232811592,1.3276880749899869,0.10373511629797112,0.035909007094728974,-0.2052184754176253,0.12368639763045099,0.12412669375023658,0.39184672866291986,1.3105738901391553,0.0
1.622162883845127,0.28080146400262584,0.0026214427879891625,1.3295093116408039,0.09106183254084861,0.032160828844824955,-0.18740891249520097,0.15037723553341212,0.1505405358298982,0.3892311507835117,1.3138456806453502,0.0
1.64218958611482,0.2810138965209466,0.010621625916038682,1.3318641257116672,0.11774070354316275,0.028546850410567027,-0.18069892171289623,0.1057916921516072,0.10593651649624572,0.38658825532180363,1.3170954443810947,0.0
1.6622162883845129,0.2813270009416958,0.015655221037462037,1.3334319253852223,0.07838998367774658,0.025052144311685717,-0.17473530494406553,0.14693745058441243,0.14668005986219929,0.3839182277652987,1.3203229532667808,0.0
1.6822429906542056,0.28176399362270405,0.021849634050411414,1.3354264873101398,0.09972809624587578,0.021354811176069098,-0.184866656780831,0.11740760225280449,0.1175616524120287,0.38122125550572394,1.3235279807847222,0.0
1.7022696929238985,0.28228779906210993,0.026190271970293274,1.3369792243688943,0.07763685293772284,0.01778422200279254,-0.178529458663828,0.14693164553149327,0.14727182329647584,0.37849752782587825,1.3267103019950528,0.0
1.7222963951935915,0.28290422048591735,0.03082107119037138,1.3389681935901712,0.09944846106384614,0.014489139742263936,-0.16475411302643034,0.13270098364325633,0.1330323338334824,0.37574723588634806,1.329869693551513,0.0
1.7423230974632844,0.28359010648444716,0.03429429992648972,1.3409715733147232,0.10016898622759574,0.011462206563278617,-0.15134665894926608,0.1421124195456594,0.14169201571443976,0.3729705727120911,1.3330059337171258,0.0
1.7623497997329773,0.2843363032822173,0.037309839888507015,1.3432572494686201,0.11428380769484367,0.008101739899526584,-0.16802333318760157,0.1302317477398612,0.130087599053944,0.37016773317888907,1.336118802379758,0.0
1.7823765020026703,0.2851260353384839,0.039486602813330336,1.3454772068298237,0.11099786806017756,0.004629095020882066,-0.17363224393222595,0.13787956312931374,0.1378692917328835,0.3673389139996707,1.339208081067569,0.0
1.8024032042723632,0.2859481577853497,0.04110612234328982,1.347860213144095,0.11915031571356603,0.0011514935609676518,-0.17388007299572067,0.1278465100108053,0.1279745817562334,0.3644843137107058,1.3422735529643444,0.0
