time,x,x_dot,z,z_dot,theta,theta_dot,u1,u2,x_ref,z_ref,theta_ref
0.0,-0.2742916154477275,0.01864345203394646,0.891950211964187,0.0247398571353227,0.06232587042284299,-0.09728282766439607,0.24145039538103616,0.18727522043946193,0.5,1.0,0.0
0.020026702269692925,-0.2735234480013838,0.03840837231718744,0.8948637593770168,0.14567737064148656,0.017041781864677114,-2.264204427908294,0.05632337494216272,0.08109550299669771,0.4999824541392403,1.0041887412073853,0.0
0.04005340453938585,-0.2726291846006507,0.044713170036654516,0.8958865072004931,0.05113739117381759,-0.008326667623201438,-1.2684224743939279,0.22539520966742976,0.2966828866748019,0.4999298177883902,1.0083771884344908,0.0
0.06008010680907877,-0.2716038820906743,0.05126512549882124,0.9007217484556507,0.24176206275787998,0.023362711458224227,1.584468954071283,0.06007112584657337,0.05632337490510425,0.49984209464164997,1.0125650477216688,0.0
0.0801068090787717,-0.27059396056685925,0.050496076190754705,0.9033564687479335,0.1317360146141433,0.05198987542850819,1.4313581985141988,0.2827733159602598,0.29668288667245757,0.49971929085573213,1.0167520251505358,0.0
0.10013351134846463,-0.2693844211646683,0.060476970109546474,0.9106509775459847,0.36472543990255707,0.09168445433127245,1.9847289451382117,0.2966828866747692,0.28750685311367025,0.4995614150494292,1.0209378268645999,0.0
0.12016021361815754,-0.2677264549644493,0.08289831001095221,0.9226604621794848,0.6004742316750082,0.1239492069031712,1.6132376285949377,0.29668288397931314,0.2929554403580719,0.49936847830300873,1.0251221590898847,0.0
0.14018691588785048,-0.2652708419513823,0.12278065065335085,0.9394332087097009,0.8386373265108047,0.1531661042013248,1.4608448649076802,0.29668288667479825,0.2911760503535514,0.499140494157436,1.0293047281555483,0.0
0.1602136181575434,-0.2617421441543864,0.17643488984979533,0.9609033708630091,1.073508107665413,0.17792189402252598,1.2377894910600598,0.2946520623169971,0.28965495163441746,0.4988774786134233,1.0334852405144925,0.0
0.1802403204272363,-0.25689865137579493,0.24217463892957242,0.9869727304081608,1.3034679772575821,0.19863690162902353,1.03575038032488,0.2160583664266247,0.2115198254609198,0.49857945013030697,1.0376634027639664,0.0
0.20026702269692925,-0.2509430626480184,0.2977794363888259,1.015308077776942,1.4167673684390683,0.2156881189842854,0.852560867763092,0.16431946766861974,0.15727833576624994,0.4982464296247522,1.0418389216661577,0.0
0.22029372496662217,-0.24405895928626123,0.344205168087859,1.0443386662391183,1.4515294231088098,0.2270819789307394,0.5696929973226956,0.1254335165919199,0.12158173469572775,0.4978784404692846,1.0460115041687736,0.0
0.24032042723631508,-0.2364053771182375,0.3826791084011861,1.0729660769439047,1.4313705352393218,0.23538030548405797,0.4149163276659339,0.0993777357649869,0.09520301007073523,0.4974755084906501,1.0501808574256075,0.0
0.260347129506008,-0.22811799697753168,0.4143690070352911,1.1004253253968002,1.3729624226447708,0.24032957332369703,0.24746339198195014,0.09342573776402624,0.09055736705065172,0.4970376619680023,1.0543466888170925,0.0
0.28037383177570097,-0.21921109237916983,0.44534522991809256,1.1265616194397365,1.306814702146818,0.2429792334729173,0.13248300746101532,0.07602749141013922,0.07319112126880153,0.4965649316309177,1.0585087059708387,0.0
0.30040053404539385,-0.20979496686058793,0.470806275929095,1.1508752483461069,1.215681445318515,0.24335740491836116,0.018908572272191337,0.09342181692176611,0.09193192211631099,0.49605735065723894,1.0626666167821521,0.0
0.3204272363150868,-0.19973552411250373,0.5029721374042108,1.1738893883805834,1.150707001723829,0.24254335234697585,-0.040702628569265674,0.07320489553902836,0.0709652334896037,0.49551495467074635,1.066820129434536,0.0
0.34045393858477974,-0.18917957470629024,0.5277974703106744,1.1950149152679155,1.0562763443665981,0.2399382484790294,-0.1302551933973224,0.1755522115730591,0.17191159792427985,0.4949377817386579,1.0709689524201722,0.0
0.3604806408544726,-0.17740572777412456,0.5886923466082837,1.217180528499436,1.1082806615760197,0.2344230191206484,-0.2757614679190525,0.08772923931891342,0.08637474817687939,0.49432587236895703,1.0751127945603784,0.0
0.38050734312416556,-0.16504016415533942,0.6182781809392559,1.2378915839414444,1.0355527721004265,0.22782984222238606,-0.32965884491311603,0.05632337956656519,0.0578059543703449,0.49367926950755014,1.0792513650260465,0.0
0.4005340453938585,-0.15230368085074855,0.6368241652295439,1.2562906460684677,0.9199531063511721,0.22242971272886738,-0.2700064746759325,0.057524154754192196,0.05632337983979066,0.49299801853525244,1.083384373358051,0.0
0.4205607476635514,-0.1392078380615161,0.6547921394616223,1.2723815657721773,0.8045459851854827,0.2160744638697178,-0.31776244295747685,0.05801793102214462,0.05632337516219,0.49228216726460267,1.087511529487638,0.0
0.44058744993324434,-0.12575965513694462,0.6724091462285734,1.2861784733186148,0.6898453773218788,0.2083702977782225,-0.38520830457476957,0.05952159230299457,0.05632337491285368,0.4915317659365077,1.09163254375678,0.0
0.4606141522029373,-0.11196464203160539,0.6897506552669613,1.2977100242165367,0.5765775448960945,0.19811617171696588,-0.5127063030628304,0.05933212746239377,0.056323377169767826,0.49074686721671645,1.0957471269385064,0.0
0.48064085447263016,-0.09783613947768195,0.7064251276961717,1.3069804089943973,0.4635192388930235,0.1854675811496712,-0.6324295283647322,0.05818897875060613,0.056323381652112245,0.48992752619212343,1.0998549902572035,0.0
0.5006675567423231,-0.08339458400461336,0.7220777736534293,1.3139804060372045,0.3499998521403604,0.17134315063620423,-0.7062215256733495,0.06467385463699558,0.06452050963870205,0.48907380036690284,1.1039558454088796,0.0
0.520694259012016,-0.06862090089291843,0.7386841555847461,1.3189314753668904,0.2475534664842989,0.15711533588627447,-0.7113907374964868,0.06530888715613764,0.06549703913565193,0.48818574965847245,1.108049404581401,0.0
0.540720961281709,-0.053537826736430205,0.7541537078244113,1.3218649868033787,0.1466755718244201,0.14305750696498437,-0.7028914460645064,0.05674509040003453,0.05632337492949751,0.48726343639328856,1.1121353804746905,0.0
0.5607476635514019,-0.03821398889124386,0.7661918922593172,1.3225288043230528,0.03319087598369633,0.12868149066644596,-0.7188008149269186,0.05661652410509869,0.056323375022624515,0.48630692530247177,1.116213486320892,0.0
0.5807743658210948,-0.022673265841497984,0.7770361524872939,1.3209277751671373,-0.08005145779577111,0.11409074736609329,-0.7295371650176317,0.056347746609672254,0.056323413625701,0.4853162835172637,1.1202834359044958,0.0
0.6008010680907877,-0.00694048391988239,0.7866390960807796,1.3170644286825817,-0.19316732422778427,0.09950072793641578,-0.7295009714838767,0.05689293489982628,0.057676973875877786,0.48429158056431554,1.1243449435824273,0.0
0.6208277703604806,0.00896274685395029,0.795161538691634,1.310972973481612,-0.30457276004847955,0.08555805969160184,-0.6971334122406962,0.08646564922256443,0.08560131545376284,0.4832328883608088,1.128397724304094,0.0
0.6408544726301736,0.025095644795827342,0.8066448970938526,1.3035070728047764,-0.37329503384178286,0.07094292169464363,-0.7307568998479097,0.10755298408884362,0.10788520522769857,0.48214028120940733,1.1324414936313905,0.0
0.6608811748998665,0.041476905495135705,0.8190630349654181,1.2953124557789142,-0.4097308512931144,0.056613768424292436,-0.7164576635175599,0.11355752807160681,0.11410317497202706,0.48101383579304297,1.1364759677586627,0.0
0.6809078771695595,0.05807213139906238,0.8297612951963336,1.286574665702597,-0.436889503815864,0.04274076416865861,-0.6936502127816915,0.12410898274751943,0.12490508723554986,0.47985363116953333,1.1405008635326255,0.0
0.7009345794392524,0.07485037352916067,0.8389121065049145,1.277613607866968,-0.44805289178144536,0.02952337902991292,-0.6608692569372839,0.14411274314141567,0.14455303015657286,0.4786597487660336,1.144515898472236,0.0
0.7209612817089452,0.09178515381901424,0.8467390144926782,1.2690191613619382,-0.4297223252514877,0.016675754615127568,-0.6423812207392676,0.16520961294458608,0.16644323626549096,0.4774322723733215,1.1485207907885173,0.0
0.7409879839786382,0.10883856044615718,0.8526703313571469,1.261429353414573,-0.3794903973682577,0.004831827966001944,-0.5921963324562813,0.0563241612510475,0.05671753855231362,0.4761712881399164,1.1525152594043386,0.0
0.7610146862483311,0.12589351697041065,0.8527478262126733,1.2516057432070453,-0.49118051037638305,-0.006682332629898467,-0.5757080297950204,0.15911442523014618,0.15927682941307325,0.47487688456603344,1.156499023974139,0.0
0.7810413885180241,0.1429441938092175,0.8525338419403418,1.2425945781711631,-0.45055825179411285,-0.018052064127792592,-0.5684865748947062,0.17909686666991004,0.18170818243176767,0.47354915249737217,1.1604718049036047,0.0
0.801068090787717,0.15993235840242837,0.8494082296605437,1.2350227140687604,-0.37859320512014183,-0.02731861142483837,-0.46332736485228876,0.05632374243163542,0.05645147618906671,0.4721881851187405,1.1644333233692916,0.0
0.82109479305741,0.17686413506296858,0.8465888330270105,1.2252130124454563,-0.4904850811651996,-0.036472128109703045,-0.4576758342432339,0.18377018545549345,0.18337278932462253,0.4707940779475151,1.1683833013381941,0.0
0.8411214953271028,0.1936205416270091,0.837820328202025,1.2169359625894511,-0.4138524928002625,-0.045932874092909325,-0.47303729916031434,0.05632337645856725,0.05744889324611588,0.46936692882693704,1.1723214615872586,0.0
0.8611481975967957,0.2102895558089485,0.8334507090969709,1.206436116216555,-0.5249923186448051,-0.054482098116730174,-0.4274612011910422,0.1987502944072111,0.1981348195808083,0.4679068379192454,1.1762475277228392,0.0
0.8811748998664887,0.2266621191690063,0.8186281680028902,1.1979065216284228,-0.4264797294066123,-0.06351392105969274,-0.45159114714812837,0.056323374905036,0.057955899343953676,0.46641390769864727,1.1801612242000974,0.0
0.9012016021361816,0.24291730021260236,0.8127590521798025,1.187160563579757,-0.537297902433282,-0.07122928982678198,-0.3857684383544625,0.21525906787375643,0.21473047070148593,0.46488824294412573,1.184062276342339,0.0
0.9212283044058746,0.2587424817482392,0.7912590767818438,1.17886894907515,-0.4145807252303544,-0.0793589703740155,-0.4064840273616753,0.28896126332142213,0.2966828865977179,0.4633299507320861,1.1879504103602934,0.0
0.9412550066755675,0.2739262161498427,0.759186720080175,1.1753241023921135,-0.1772423341518321,-0.08130240902072425,-0.09717193233543792,0.29440855542113437,0.2966823679168979,0.4617391404288412,1.1918253533713281,0.0
0.9612817089452603,0.2883941241834395,0.723395401679842,1.1765936446661114,0.06347711369989714,-0.08142509527702482,-0.006134312815028825,0.25765931253954943,0.2570561392871434,0.4601159236829352,1.1956868334186013,0.0
0.9813084112149533,0.3022227711444072,0.6914323480483835,1.1815416594537251,0.24740073938068782,-0.08203022138053916,-0.03025630517571745,0.17084899081889365,0.16977918364512495,0.4584604144173082,1.1995345794901475,0.0
1.0013351134846462,0.31562178592496387,0.669950739027832,1.1875924327485956,0.3025386647435248,-0.08349069431839698,-0.0730236468928907,0.1406907011750273,0.13984947142920182,0.45677272882130043,1.2033683215379,0.0
1.0213618157543392,0.32866165412201104,0.6519934098523583,1.1938569823782454,0.31322748148249074,-0.08562289663761405,-0.10661011596085301,0.06617160225404811,0.05632337490500687,0.45505298534249783,1.2071877904966422,0.0
1.041388518024032,0.34153220674640583,0.6435276312197384,1.1980013143803938,0.20721660010741894,-0.09563177479533491,-0.500443907886043,0.05911158019122975,0.05632341757674474,0.45330130467841884,1.2109927183028915,0.0
1.061415220293725,0.35423925286118796,0.6353523057391053,1.199923972596617,0.09613291081116311,-0.10785905711301734,-0.61136411588412,0.09148841683031392,0.09057807515641521,0.4515178097680436,1.2147828379137142,0.0
1.081441922563418,0.3666720482522546,0.6216397695533309,1.2006090611632314,0.03425442833071006,-0.12079879624690552,-0.6469869566944095,0.10157926266227182,0.10121991902587477,0.44970262578318554,1.2185578833254664,0.0
1.101468624833111,0.3787652777690084,0.6046614758376916,1.200360233550582,-0.01244138063246187,-0.13400893695842056,-0.6605070355757505,0.145791668029128,0.146871345808763,0.44785588011970645,1.2223175895924638,0.0
1.1214953271028039,0.390320501303583,0.5777611767287291,1.2004958778164883,0.006782213295305647,-0.1463378623851351,-0.616446271335728,0.1351917173412625,0.137794660568871,0.4459777023885754,1.2260616928455754,0.0
1.1415220293724968,0.40132079538761845,0.5500147042017745,1.2007193337612976,0.011172797240465937,-0.15656864825313538,-0.5115392934000149,0.11676320984502214,0.11942411668379138,0.44406822440677224,1.229789930310744,0.0
1.1615487316421895,0.41179722693944043,0.5238215775910982,1.2004841850088834,-0.01175743762071197,-0.16465844866731288,-0.40449002070887546,0.21704130368677393,0.2205038990052744,0.44212758018803616,1.2335020403274277,0.0
1.1815754339118825,0.4212501257990964,0.47264494298279713,1.202732185373505,0.1124000182310709,-0.16996917383487917,-0.2655362583783124,0.1879474112345049,0.18848305112446853,0.4401559059334601,1.2371977623669645,0.0
1.2016021361815754,0.42977767350617413,0.42637738535388736,1.2065588323525156,0.19133234895053086,-0.17484601640120684,-0.2438421283163841,0.21669517162150362,0.21804704186406978,0.4381533400219318,1.2408768370508576,0.0
1.2216288384512684,0.4372057665170162,0.3714046505421045,1.2128088031961497,0.31249854218170803,-0.17863652281670772,-0.1895253207750442,0.23325965905056886,0.2357021337783375,0.43612002300042185,1.244539006168978,0.0
1.2416555407209613,0.4434164555822829,0.3105344532633332,1.2219730018320902,0.45820993179702696,-0.18046945636470077,-0.09164667739965005,0.18065416240634077,0.18197279647009207,0.4340560975741196,1.2481840126976884,0.0
1.2616822429906542,0.44866484152929675,0.26241929735069514,1.2324925730007041,0.5259785584306969,-0.18124588370113104,-0.038821366821512174,0.13457855519701883,0.13681561458870378,0.43196170859641764,1.2518116008178803,0.0
1.2817089452603472,0.45318488775310173,0.2260023111902491,1.2430341388106914,0.5270782904993574,-0.18023201880821718,0.05069324464569051,0.05632338220254304,0.05728471873579351,0.42983700305874556,1.2554215159329298,0.0
1.3017356475300401,0.4573958597459102,0.2105485996404228,1.251297948872985,0.41319050311468103,-0.17844993729275074,0.08910407577332538,0.13941980436893303,0.14009674309907058,0.4276821300802533,1.2590135046865651,0.0
1.321762349799733,0.4608595965348479,0.17318683944688607,1.2597059927928729,0.42040219599440143,-0.1761278583508654,0.11610394709426558,0.056577313862804415,0.05810277996372536,0.4254972408973459,1.262587314980648,0.0
1.341789052069426,0.4640177288823365,0.15790661737442865,1.2658562367480073,0.30751219775672023,-0.17258748316352968,0.17701875936678582,0.13539260356056892,0.1352491266240214,0.4232824888530689,1.266142695992867,0.0
1.361815754339119,0.46646992088993916,0.12260960038013408,1.2720273378772187,0.308555056460569,-0.16916522247641605,0.17111303435568048,0.1282420805609449,0.12900945945802075,0.42103802938634616,1.2696793981943417,0.0
1.3818424566088119,0.4682650062827727,0.0897542696416747,1.2780263775888108,0.2999519855796098,-0.16513226854982094,0.20164769632975557,0.1540089795125563,0.15494905651090043,0.4187640200210709,1.2731971733671346,0.0
1.4018691588785048,0.46928759806277714,0.05112958900022226,1.284610935639922,0.3292279025555594,-0.16035113609232649,0.23905662287472287,0.11870104271575095,0.11921281988311026,0.4164606203550497,1.276695774621672,0.0
1.4218958611481975,0.4697297073964426,0.02210546668327363,1.2907451736693303,0.3067119014704103,-0.15516532585543108,0.2592905118447716,0.13891930212443465,0.1395479225744675,0.4141279920488021,1.2801749564140723,0.0
1.4419225634178905,0.46951266647250517,-0.010852046196871391,1.2970255114964309,0.31401689135502536,-0.14948185037378175,0.28417377408246436,0.09400783590519744,0.09446448684695444,0.4117662988142137,1.283634474563378,0.0
1.4619492656875834,0.4688643402367615,-0.03241631178718472,1.3021378836678028,0.2556186085685937,-0.14343889889498387,0.302147573939893,0.12365818392903963,0.12390704408820757,0.40937570640304727,1.287074086268695,0.0
1.4819759679572764,0.46767046119286626,-0.059693952194760876,1.3069518450598478,0.24069806960225382,-0.13720315797546265,0.3117870459760633,0.13175753677179133,0.1320940275282319,0.4069563825953091,1.2904935501262298,0.0
1.5020026702269693,0.4659190047619913,-0.08757282154375014,1.3117097688141484,0.23789618771502766,-0.13070477365565908,0.32491921599017715,0.11694514326699097,0.11731549934479633,0.4045084971874737,1.2938926261462367,0.0
1.5220293724966623,0.46369462983497295,-0.11121874635091514,1.3159808347268305,0.2135532956341004,-0.12391699859674833,0.3393887529455376,0.1154473915279295,0.11575840832962883,0.4020322219805673,1.2972710757698567,0.0
1.5420560747663552,0.46102603723051777,-0.1334296302227596,1.319723715601576,0.18714404373727206,-0.11688768900385224,0.3514654796448034,0.11673909850011793,0.11735773741817655,0.3995277307681099,1.3006286618858631,0.0
1.5620827770360481,0.4579314124838402,-0.15473123733387878,1.3229844222088474,0.1630353303635648,-0.10937108039877234,0.37583043025399593,0.11365348596159286,0.11339016838464429,0.3969951993239177,1.3039651488473027,0.0
1.582109479305741,0.4544475500123316,-0.1741931235754277,1.3256625917148794,0.13390847530160285,-0.10207339316726077,0.364884361575578,0.1318070544453112,0.1320777968104319,0.39443480538976705,1.3072803024880322,0.0
1.602136181575434,0.45054036306204015,-0.1953593475145729,1.3283041942232074,0.1320801254163981,-0.09456708621027934,0.375315347849071,0.12864707180187,0.12792645423371984,0.39184672866291986,1.3105738901391553,0.0
1.622162883845127,0.44624972228369014,-0.2145320389175016,1.3308044898277422,0.1250147802267396,-0.0876455158978644,0.34607851562074804,0.1222040649463614,0.12265508494187168,0.3892311507835117,1.3138456806453502,0.0
1.64218958611482,0.44162083121937,-0.23144455321600665,1.3329936231455588,0.10945666589082823,-0.08037059181352448,0.36374620421699505,0.10475325911374461,0.10468518331166457,0.38658825532180363,1.3170954443810947,0.0
1.6622162883845129,0.4367249935995819,-0.24479188098940535,1.3343514387358095,0.0678907795125338,-0.07315806384961066,0.36062639819569114,0.09011564639535666,0.09029552236408647,0.3839182277652987,1.3203229532667808,0.0
1.6822429906542056,0.4316194876473323,-0.2552752976124797,1.3344520225826229,0.005029192340664734,-0.06580948969817704,0.3674287075716807,0.1364697119295354,0.135990330134667,0.38122125550572394,1.3235279807847222,0.0
1.7022696929238985,0.42622407378453264,-0.26977069313998314,1.3346581535680637,0.010306549272047386,-0.05885244954856614,0.34785200748054523,0.12419224371828837,0.12414856563772284,0.37849752782587825,1.3267103019950528,0.0
1.7222963951935915,0.4205921950368095,-0.28159393738615635,1.334615234169505,-0.002145969927936692,-0.051937852666054045,0.34572984412560465,0.18179385875135365,0.18171318484884585,0.37574723588634806,1.329869693551513,0.0
1.7423230974632844,0.4146493359968056,-0.297142952000195,1.3360283247282625,0.07065452793787956,-0.045095237506034905,0.34213075800095744,0.1899717589286078,0.18968582032572645,0.3729705727120911,1.3330059337171258,0.0
1.7623497997329773,0.40842068725538955,-0.31143243707080276,1.3391369117371523,0.15542935044449302,-0.03848871482037839,0.33032613428282603,0.17504841890313563,0.17608152425898158,0.37016773317888907,1.336118802379758,0.0
1.7823765020026703,0.4019642532584815,-0.322821699845402,1.3435187830006952,0.21909356317714573,-0.031062756950075914,0.3712978935151236,0.15837452323896783,0.15770158458955347,0.3673389139996707,1.339208081067569,0.0
1.8024032042723632,0.3953348164746876,-0.33147183918969664,1.348654922171603,0.25680695854539914,-0.024183281715858523,0.3439737617108689,0.14720057629490188,0.14690450343033837,0.3644843137107058,1.3422735529643444,0.0
