time,x,x_dot,z,z_dot,theta,theta_dot,u1,u2,x_ref,z_ref,theta_ref
0.0,0.1462613138950113,0.005698229034040561,1.263650239801926,0.062338553401921404,0.004091542080289472,0.055867934479557485,0.07725563084632102,0.05632337490488086,0.5,1.0,0.0
0.020026702269692925,0.1463832785242448,0.006098231461675291,1.2629548826948602,-0.03476785535328758,-0.011537847291410294,-0.7814694685849883,0.14252216552627633,0.16147154535573294,0.4999824541392403,1.0041887412073853,0.0
0.04005340453938585,0.14652356879822176,0.007014513698847749,1.2628436743443854,-0.005560417523740754,-0.011987309703587358,-0.022473120608853203,0.05632337491394093,0.06748638728814016,0.4999298177883902,1.0083771884344908,0.0
0.06008010680907877,0.14664258336956162,0.005950728566993675,1.260646652379688,-0.10985109823486526,-0.00350599597903135,0.4240656862278004,0.08946194427915927,0.09877554873617855,0.49984209464164997,1.0125650477216688,0.0
0.0801068090787717,0.146728064001675,0.004274031605669302,1.2573200846322377,-0.16632838737251826,0.012416270973662102,0.7961133476346727,0.057665870808103925,0.05632338538609275,0.49971929085573213,1.0167520251505358,0.0
0.10013351134846463,0.14680754420376194,0.0039740101043464334,1.2517653402696163,-0.27773721813106583,0.027241807167425004,0.7412768096881449,0.05632337558515013,0.061557903212160446,0.4995614150494292,1.0209378268645999,0.0
0.12016021361815754,0.14690862624602566,0.005054102113186037,1.2440425287383428,-0.3861405765636738,0.04623385296940512,0.949602290099005,0.121443881897777,0.12187738006241938,0.49936847830300873,1.0251221590898847,0.0
0.14018691588785048,0.14710778421039825,0.00995789821862875,1.2360117032773976,-0.4015412730472618,0.06554301321211543,0.9654580121355153,0.058786223940809096,0.056323377099473576,0.499140494157436,1.0293047281555483,0.0
0.1602136181575434,0.14738553462392093,0.013887520676134173,1.2257733881558874,-0.5119157560755101,0.0828519021987998,0.86544444933422,0.09442834225819746,0.09318235168279189,0.4988774786134233,1.0334852405144925,0.0
0.1802403204272363,0.14784499005439533,0.02297277152372039,1.2144009079460298,-0.5686240104928751,0.09913831702363508,0.8143207412417627,0.0615532704007335,0.05632339825484358,0.49857945013030697,1.0376634027639664,0.0
0.20026702269692925,0.14844838928768855,0.030169961664661057,1.2008630339616015,-0.6768936992214193,0.11121774997965088,0.6039716478007903,0.2295154182240158,0.2279205882252531,0.4982464296247522,1.0418389216661577,0.0
0.22029372496662217,0.14972172223681407,0.06366664745627525,1.1901668827910916,-0.5348075585254967,0.12200591196386555,0.5394080992107352,0.29668288667384657,0.291327625268342,0.4978784404692846,1.0460115041687736,0.0
0.24032042723631508,0.1519603392733554,0.11193085182706661,1.1842213429969402,-0.297276989707578,0.12849682822204608,0.32454581290902795,0.29668287471404786,0.2937585038457273,0.4974755084906501,1.0501808574256075,0.0
0.260347129506008,0.15526117066874667,0.16504156976956452,1.1830443273552074,-0.05885078208663472,0.13264141905661977,0.2072295417286839,0.24368310477830005,0.23983081003049328,0.4970376619680023,1.0543466888170925,0.0
0.28037383177570097,0.15947681232526942,0.21078208282613742,1.185052531648838,0.10041021468153799,0.13370019778432699,0.05293893638536046,0.23766090036180756,0.23496673156104772,0.4965649316309177,1.0585087059708387,0.0
0.30040053404539385,0.16461431385990064,0.2568750767315603,1.19007914063673,0.25133044939459204,0.13260275081604686,-0.05487234841400661,0.20892049335750473,0.20668204633015072,0.49605735065723894,1.0626666167821521,0.0
0.3204272363150868,0.1705669800867184,0.29763331134088794,1.197282408627873,0.360163399557156,0.1297154734374163,-0.14436386893152714,0.208537841533137,0.2065414199937705,0.49551495467074635,1.066820129434536,0.0
0.34045393858477974,0.17732568869119453,0.33793543022380745,1.2066525598343065,0.468507560321677,0.1252337087611222,-0.22408823381470488,0.12092093231647792,0.11835223247140852,0.4949377817386579,1.0709689524201722,0.0
0.3604806408544726,0.18453439231063742,0.3604351809721446,1.2156058915915886,0.44766658786409846,0.11870139370714804,-0.326615752698708,0.05632337493961337,0.05695744787674766,0.49432587236895703,1.0751127945603784,0.0
0.38050734312416556,0.19194363708029782,0.3704622384830198,1.2222930353907036,0.3343571899557447,0.1126832583871476,-0.3009067660000222,0.057461341739575546,0.05632337736697825,0.49367926950755014,1.0792513650260465,0.0
0.4005340453938585,0.1995436217958068,0.3799992357754497,1.2267259974832443,0.22164810462703816,0.1057610312811407,-0.3461113553003454,0.057727734752977725,0.05632337584250972,0.49299801853525244,1.083384373358051,0.0
0.4205607476635514,0.2073248439897356,0.3890611096964403,1.2289127833706524,0.10933929437040112,0.09772279843448889,-0.4019116423325906,0.05730686635373093,0.05632337499039418,0.49228216726460267,1.087511529487638,0.0
0.44058744993324434,0.21527503304747744,0.3975094528870919,1.2288511177817871,-0.0030832794432601313,0.08890681347918744,-0.44079924776507295,0.05638306576320364,0.056323379811774994,0.4915317659365077,1.09163254375678,0.0
0.4606141522029373,0.22337924428750167,0.40521056200121136,1.226531279873671,-0.11599189540581191,0.08005324326965226,-0.4426785104767579,0.09540223235975187,0.0940791378887559,0.49074686721671645,1.0957471269385064,0.0
0.48064085447263016,0.23172348396527231,0.41721198388853253,1.2230901243997108,-0.17205777369801045,0.07015145725188415,-0.495089300888405,0.10957978250076598,0.10976475872998037,0.48992752619212343,1.0998549902572035,0.0
0.5006675567423231,0.240317894819302,0.4297205427014838,1.218972106155294,-0.20590091222083995,0.06040948820632515,-0.48709845227795057,0.16365709791911554,0.16381305806478696,0.48907380036690284,1.1039558454088796,0.0
0.520694259012016,0.24924220832322683,0.4462156751962413,1.215778429292098,-0.15968384315980377,0.05080387117014394,-0.4802808518090602,0.14101775204933956,0.14030097049852158,0.48818574965847245,1.108049404581401,0.0
0.540720961281709,0.25840761339672097,0.4582702536747073,1.2128286007393043,-0.14749142763967896,0.04063623055599073,-0.5083820307076607,0.15357197065404302,0.15399024256732993,0.48726343639328856,1.1121353804746905,0.0
0.5607476635514019,0.2677935433339992,0.4692964968639113,1.210512866422522,-0.11578671583911362,0.030815459524926054,-0.4910385515532339,0.1245887512385236,0.12388938339370535,0.48630692530247177,1.116213486320892,0.0
0.5807743658210948,0.2773178822331859,0.47621694495933503,1.2079579987914546,-0.12774338155337223,0.020446935717023006,-0.518426190395152,0.1484953817482415,0.14832048529955458,0.4853162835172637,1.1202834359044958,0.0
0.6008010680907877,0.28696632737679373,0.48242225718039256,1.2058813672631146,-0.10383157641699851,0.009951097341293067,-0.5247919187864969,0.10140088297770589,0.1015996134399269,0.48429158056431554,1.1243449435824273,0.0
0.6208277703604806,0.2966647329248088,0.4849202774007557,1.2028940029614426,-0.14936821508360343,-0.0003729622463044545,-0.5162029793798761,0.11570444124581296,0.11507932903026141,0.4832328883608088,1.128397724304094,0.0
0.6408544726301736,0.3063854653705376,0.48603662228643973,1.1994090907282122,-0.17424561166151786,-0.011184562259599233,-0.5405800006647389,0.11243585646378589,0.1126083909683643,0.48214028120940733,1.1324414936313905,0.0
0.6608811748998665,0.3160931625206441,0.48538485750532445,1.1953423945258765,-0.20333481011678287,-0.021844817828717222,-0.5330127784558997,0.14291866289314253,0.14407234642639702,0.48101383579304297,1.1364759677586627,0.0
0.6809078771695595,0.32574145391943354,0.482414569939471,1.1916121164994156,-0.1865139013230521,-0.03156910516694261,-0.4862143669112693,0.1271654114026875,0.12765738198331553,0.47985363116953333,1.1405008635326255,0.0
0.7009345794392524,0.33529557353349543,0.4777059807030943,1.1877406179660421,-0.19357492666867482,-0.04088827274897966,-0.46595837910185284,0.1355187060625814,0.13607718610238295,0.4786597487660336,1.144515898472236,0.0
0.7209612817089452,0.3447111085158965,0.470776749120053,1.1839754510543905,-0.18825834558257942,-0.04974974649073747,-0.4430736870878895,0.13479863916966026,0.1355030645288736,0.4774322723733215,1.1485207907885173,0.0
0.7409879839786382,0.3539516017302491,0.46202466071763126,1.1802959462087903,-0.18397524228000764,-0.058037471863742654,-0.41438626865025924,0.1372456535622216,0.1381918302305537,0.4761712881399164,1.1525152594043386,0.0
0.7610146862483311,0.3629781034036199,0.4513250836685406,1.1767763554337143,-0.17597953875380448,-0.06555890426195482,-0.37607161991060933,0.14758395580361364,0.14830065793128486,0.47487688456603344,1.156499023974139,0.0
0.7810413885180241,0.3717396227247751,0.43807596605776167,1.1737170395952754,-0.15296579192194681,-0.0724987111525007,-0.3469903445272929,0.15626149463471453,0.15698394799676352,0.47354915249737217,1.1604718049036047,0.0
0.801068090787717,0.38018686089135656,0.42236190832907067,1.1713720109205306,-0.11725143373724317,-0.07885309098882642,-0.31771899181628627,0.14026880105384731,0.1417411883855422,0.4721881851187405,1.1644333233692916,0.0
0.82109479305741,0.38832175012745135,0.40674446180473994,1.1692766314520142,-0.1047689734258147,-0.08402288611117927,-0.2584897561176416,0.16315954189592646,0.16343788482746274,0.4707940779475151,1.1683833013381941,0.0
0.8411214953271028,0.39606626411473494,0.3872256993641803,1.1680870781823443,-0.05947766348350291,-0.08896480495673488,-0.2470959422777818,0.21105000056399492,0.21184383411882557,0.46936692882693704,1.1723214615872586,0.0
0.8611481975967957,0.4032763631670138,0.360504952613945,1.1692218409353892,0.05673813765225121,-0.09326673427594857,-0.2150964659606861,0.1969391792702201,0.19708331442107585,0.4679068379192454,1.1762475277228392,0.0
0.8811748998664887,0.40995995339120433,0.3341795112095254,1.1722496494650334,0.15139042648220755,-0.0974491747342598,-0.2091220229155616,0.16660793127454954,0.1670109221128536,0.46641390769864727,1.1801612242000974,0.0
0.9012016021361816,0.4161759321652747,0.3107989387035196,1.1762751675746153,0.20127590547909757,-0.10130517967709654,-0.19280024714183724,0.1435533998890785,0.14530328972960677,0.46488824294412573,1.184062276342339,0.0
0.9212283044058746,0.4219687366026855,0.2896402218705417,1.180635328126583,0.21800802759837745,-0.1037576036001477,-0.12262119615255716,0.11653285991672017,0.11801492270807486,0.4633299507320861,1.1879504103602934,0.0
0.9412550066755675,0.4274038151856534,0.2717539291483946,1.184527702860226,0.19461873668215351,-0.10502217834117752,-0.06322873705149165,0.13211310531906761,0.1326106588581781,0.4617391404288412,1.1918253533713281,0.0
0.9612817089452603,0.4324269020252577,0.2511543419802148,1.1883966648074236,0.19344809735988103,-0.10588763494344403,-0.04327283011332496,0.11966567589133682,0.12049381475733398,0.4601159236829352,1.1956868334186013,0.0
0.9813084112149533,0.4370717226403402,0.2322410307541266,1.1918798654561205,0.1741600324348452,-0.10608985837515732,-0.01011117158566499,0.14347221066375512,0.14393578899070475,0.4584604144173082,1.1995345794901475,0.0
1.0013351134846462,0.4412617322057926,0.2095004782726191,1.1956735190491328,0.18968267965061467,-0.10592105573837968,0.008440131838884094,0.12527463888592125,0.12559886600264664,0.45677272882130043,1.2033683215379,0.0
1.0213618157543392,0.44505388337871293,0.18960755864601597,1.1992390286131782,0.178275478202269,-0.1054930075937968,0.021402407229142474,0.12260029470376518,0.12144457710415374,0.45505298534249783,1.2071877904966422,0.0
1.041388518024032,0.44845997155086587,0.1703044086076477,1.202476160429862,0.16185659083418283,-0.1059898832117169,-0.02484378089600571,0.151571263253063,0.15164313393343695,0.45330130467841884,1.2109927183028915,0.0
1.061415220293725,0.4513896916483662,0.1464860048750163,1.2062571868172371,0.18905131936876116,-0.10642885491653496,-0.02194858524090369,0.1568863411111796,0.15721989007715714,0.4515178097680436,1.2147828379137142,0.0
1.081441922563418,0.45382421432074405,0.12172613361889285,1.210741777112714,0.22422951477384917,-0.10660062858907833,-0.008588683627167153,0.17506137363527954,0.17568995486949648,0.44970262578318554,1.2185578833254664,0.0
1.101468624833111,0.4557042979632303,0.09400418212431404,1.2164687785277501,0.2863500707518025,-0.10626939868248422,0.016561495329703815,0.1317248378586559,0.13267564011927752,0.44785588011970645,1.2223175895924638,0.0
1.1214953271028039,0.4571656552567764,0.07306786467730422,1.2221646266548891,0.28479240635694786,-0.10517779638156834,0.05458011504579317,0.12600323165619265,0.126221670457703,0.4459777023885754,1.2260616928455754,0.0
1.1415220293724968,0.4582291535543619,0.05317491487927678,1.2276501640052782,0.27427686751945723,-0.10391236408920398,0.06327161461821755,0.11810891818323767,0.11843839934044316,0.44406822440677224,1.229789930310744,0.0
1.1615487316421895,0.4589236569852714,0.034725171545474165,1.2326951259269006,0.25224809608111753,-0.10238442348068232,0.07639703042608509,0.12177916277912934,0.12206346885522538,0.44212758018803616,1.2335020403274277,0.0
1.1815754339118825,0.45924275683183896,0.015954992328377778,1.2374080217871883,0.23564479301439162,-0.10063035401333796,0.08770347336721869,0.12379870977818745,0.12431389616945643,0.4401559059334601,1.2371977623669645,0.0
1.2016021361815754,0.45918585950317004,-0.0028448664334469846,1.2418527503617656,0.22223642872885657,-0.09846566239294775,0.1082345810195092,0.1259645208089211,0.12638371746521598,0.4381533400219318,1.2408768370508576,0.0
1.2216288384512684,0.4587534466112922,-0.021620644593892267,1.246092712389179,0.2119981013706711,-0.09596753342209094,0.12490644854284191,0.12685349941297921,0.12735041993227741,0.43612002300042185,1.244539006168978,0.0
1.2416555407209613,0.4579512321816737,-0.04011072148092381,1.2501563018382327,0.2031794724526828,-0.09307411740529795,0.1446708008396481,0.12742491118253124,0.12785840838724666,0.4340560975741196,1.2481840126976884,0.0
1.2616822429906542,0.45678740246557775,-0.0581914858047988,1.2540605400685934,0.19521191151803136,-0.08983655468340618,0.1618781360945879,0.12848504583177442,0.12858286868694208,0.43196170859641764,1.2518116008178803,0.0
1.2817089452603472,0.4552707402957961,-0.0758331084890807,1.2578329483791983,0.1886204155302453,-0.08652374341012961,0.16564056366382918,0.12894110018326524,0.12932642427676444,0.42983700305874556,1.2554215159329298,0.0
1.3017356475300401,0.45341226895766246,-0.09292356690668385,1.2614924813475497,0.1829766484175634,-0.08290576379127242,0.18089898094285997,0.1332909880050189,0.13334153135303886,0.4276821300802533,1.2590135046865651,0.0
1.321762349799733,0.45121423737425065,-0.10990157917059173,1.265163820527803,0.1835669590126744,-0.07925076773331899,0.18274980289767215,0.12785502230600818,0.12811422963281136,0.4254972408973459,1.262587314980648,0.0
1.341789052069426,0.4487043104428769,-0.12549634656868733,1.268690706402753,0.17634429374750285,-0.07539186555563773,0.1929451088840607,0.14245172162931818,0.14241526370500848,0.4232824888530689,1.266142695992867,0.0
1.361815754339119,0.4458627178659473,-0.14207962884648062,1.2725011656151184,0.19052296061826135,-0.07156581226694529,0.19130266443462327,0.09968636256094351,0.10010183925914262,0.42103802938634616,1.2696793981943417,0.0
1.3818424566088119,0.44280100343266265,-0.15308572166423037,1.2753392694347867,0.14190519098341925,-0.06741102644240357,0.20773929122708581,0.13898787496868126,0.1393875999184755,0.4187640200210709,1.2731971733671346,0.0
1.4018691588785048,0.439447358310795,-0.16768225609338283,1.2783681533654463,0.15144419653297903,-0.06294047773646241,0.22352743529705812,0.09970330026135898,0.0995492471552302,0.4164606203550497,1.276695774621672,0.0
1.4218958611481975,0.43589816307390294,-0.17745976184460371,1.2804192517657205,0.1025549200137035,-0.05859754615497242,0.21714657907450052,0.1498353306933125,0.1501163765887333,0.4141279920488021,1.2801749564140723,0.0
1.4419225634178905,0.43207288335685934,-0.1912639858521794,1.2829833029469155,0.12820255905975353,-0.0540340087648307,0.22817686950708554,0.10837095989377002,0.10839445384774518,0.4117662988142137,1.283634474563378,0.0
1.4619492656875834,0.4280632995568708,-0.20047918999942826,1.2848306582731397,0.09236776631120633,-0.04945616027197372,0.2288924246428481,0.15892532599299986,0.15915621756095663,0.40937570640304727,1.287074086268695,0.0
1.4819759679572764,0.42380312985737156,-0.21300848497495972,1.2874616511143735,0.13154964206168562,-0.04469810100680447,0.23790296325846363,0.18198026443293486,0.1817700021331398,0.4069563825953091,1.2904935501262298,0.0
1.5020026702269693,0.4192808162231493,-0.226115681711115,1.2915523160173106,0.20453324514685192,-0.0401129616898385,0.22925696584829805,0.16057814904519005,0.1618351544968475,0.4045084971874737,1.2938926261462367,0.0
1.5220293724966623,0.4145497944132388,-0.2365510904955239,1.296490433257212,0.2469058619950679,-0.034526737633646026,0.27931120280962435,0.08882715536109469,0.08848517472309342,0.4020322219805673,1.2972710757698567,0.0
1.5420560747663552,0.40971850912756685,-0.24156426428359853,1.3001279854473136,0.18187760950507145,-0.029219811034225697,0.2653463299710165,0.09998643267797118,0.10068707011574847,0.3995277307681099,1.3006286618858631,0.0
1.5620827770360481,0.404789632017821,-0.24644385548729275,1.3028129166050075,0.13424655788470266,-0.023357754457474296,0.29310282883756955,0.15633309500980444,0.15558698925978806,0.3969951993239177,1.3039651488473027,0.0
1.582109479305741,0.3997307979347905,-0.2529417041515249,1.306194162737292,0.16906230661422034,-0.01809863641859974,0.26295590194372775,0.13983108219978127,0.1397375082504669,0.39443480538976705,1.3072803024880322,0.0
1.602136181575434,0.3945805088519469,-0.25751445414217977,1.3097925080136503,0.17991726381791937,-0.01291969013115389,0.25894731437229274,0.05665034433110888,0.056326272237210345,0.39184672866291986,1.3105738901391553,0.0
1.622162883845127,0.38940534379501796,-0.2587582528464484,1.3111405238433285,0.06740079148390629,-0.008005214058296052,0.2457238036428918,0.0951472468080379,0.09455283467098333,0.3892311507835117,1.3138456806453502,0.0
1.64218958611482,0.3841991177900639,-0.26031130024770455,1.3113773099303896,0.011839304353057321,-0.0035711596163304203,0.22170272209828165,0.16317453573516189,0.16325762002633143,0.38658825532180363,1.3170954443810947,0.0
1.6622162883845129,0.37895942902076946,-0.2619844384647226,1.312529734210361,0.05762121399857266,0.0009250279281606832,0.22480937722455518,0.15273329018727536,0.15303454371690864,0.3839182277652987,1.3203229532667808,0.0
1.6822429906542056,0.3737088794843124,-0.26252747682285305,1.3142908541945122,0.08805599920756073,0.005657810282307346,0.23663911770733312,0.12291493158248093,0.12202384846973266,0.38122125550572394,1.3235279807847222,0.0
1.7022696929238985,0.3684670501654467,-0.26209146594328614,1.3157588962719977,0.0734021038742707,0.00967305193513916,0.20076208264159082,0.18209345118888348,0.18093529201370506,0.37849752782587825,1.3267103019950528,0.0
1.7222963951935915,0.3632609843635639,-0.26030329009413883,1.3186835617860173,0.14623327570098077,0.012757916636774516,0.15424323508176768,0.17105574054142414,0.17129463357502475,0.37574723588634806,1.329869693551513,0.0
1.7423230974632844,0.35810938647471663,-0.25757989444236384,1.3227568091164625,0.2036623665222587,0.016031046308624706,0.1636564835925097,0.159514083075076,0.15891774544799422,0.3729705727120911,1.3330059337171258,0.0
1.7623497997329773,0.3530234471097564,-0.25429696824801173,1.3276228524834006,0.24330216834690788,0.018824061395539975,0.13965075434576318,0.09857770865888901,0.0977410413496969,0.37016773317888907,1.336118802379758,0.0
1.7823765020026703,0.34798963157276047,-0.2516907768497982,1.331471685174676,0.19244163456376973,0.020945198796470593,0.10605687004653053,0.16946403608492086,0.1685490456012057,0.3673389139996707,1.339208081067569,0.0
