time,x,x_dot,z,z_dot,theta,theta_dot,u1,u2,x_ref,z_ref,theta_ref
0.0,0.1462613138950113,0.005698229034040561,1.263650239801926,0.062338553401921404,0.004091542080289472,0.055867934479557485,0.05632337510732242,0.05632337491951591,0.5,1.0,0.0
0.020026702269692925,0.14638200970995727,0.006034790747298789,1.262644777804739,-0.0502730998593587,0.005207956943332398,0.05582074315214622,0.05632337490834201,0.06944148603000688,0.4999824541392403,1.0041887412073853,0.0
0.04005340453938585,0.14651022735013125,0.006410882008699278,1.259583328444664,-0.15307246800374258,0.01681791066084069,0.5804976858754144,0.05632337499027464,0.06210373409646305,0.4999298177883902,1.0083771884344908,0.0
0.06008010680907877,0.1466474638937503,0.006861827180953177,1.254359155376955,-0.2612086533854471,0.03303715995686523,0.8109624648012269,0.05632337506999974,0.05901069545524933,0.49984209464164997,1.0125650477216688,0.0
0.0801068090787717,0.14681329657762812,0.008291634193891421,1.2469286649735802,-0.3715245201687372,0.051382484445252924,0.9172662244193859,0.05632337493504759,0.056922652496152304,0.49971929085573213,1.0167520251505358,0.0
0.10013351134846463,0.1470343642810181,0.011053385169498883,1.2372631314406564,-0.48327667664619167,0.07017901151944061,0.9398263537093837,0.05632546189575592,0.056323375695894816,0.4995614150494292,1.0209378268645999,0.0
0.12016021361815754,0.14734088268328854,0.015325920113521602,1.2253557373219455,-0.595369705935547,0.08894470033035101,0.938284440545519,0.0579500089712321,0.056323377214755534,0.49936847830300873,1.0251221590898847,0.0
0.14018691588785048,0.14776572111842506,0.021241921756825877,1.2112323142619987,-0.7061711529973387,0.10638021426394567,0.871775696679733,0.05894707788918601,0.05632339289726313,0.499140494157436,1.0293047281555483,0.0
0.1602136181575434,0.148341671187688,0.028797503463147807,1.1949091325366588,-0.8161590862670023,0.12169099093661137,0.765538833633286,0.08551903573206494,0.08258951778276712,0.4988774786134233,1.0334852405144925,0.0
0.1802403204272363,0.14918122439680534,0.04197766045586586,1.1771660920463802,-0.8871520245139279,0.13463680252322632,0.6472905793307475,0.1325215693366421,0.1288511438065174,0.49857945013030697,1.0376634027639664,0.0
0.20026702269692925,0.15048955774290323,0.0654166673048951,1.1593734053710787,-0.8896343337650763,0.14462945932848548,0.4996328402629562,0.16719668846698119,0.16266838630980052,0.4982464296247522,1.0418389216661577,0.0
0.22029372496662217,0.15245188000213772,0.09811611296172427,1.1425303145899979,-0.8421545390540459,0.150987667019884,0.3179103845699274,0.19045478068156174,0.18572769208087386,0.4978784404692846,1.0460115041687736,0.0
0.24032042723631508,0.15521452491912888,0.13813224584955794,1.127307009940308,-0.7611652324844904,0.1535575766327053,0.1284954806410635,0.2019275874841893,0.197458631350647,0.4974755084906501,1.0501808574256075,0.0
0.260347129506008,0.15886322824292942,0.18243516619002734,1.1140348223691618,-0.6636093785573014,0.15255001303960394,-0.050378179655066774,0.2007755947836357,0.19682517270515817,0.4970376619680023,1.0543466888170925,0.0
0.28037383177570097,0.16340796589738793,0.22723688272292558,1.1026816307021206,-0.567659583352068,0.14838296004611445,-0.20835264967447528,0.19097045912457294,0.18769392246949515,0.4965649316309177,1.0585087059708387,0.0
0.30040053404539385,0.1687993108638553,0.2695672483233688,1.0929677695705446,-0.48569305657879425,0.14159872870200696,-0.33921156720537526,0.18229154980503642,0.1797013783631085,0.49605735065723894,1.0626666167821521,0.0
0.3204272363150868,0.17497678679302736,0.30887379645860236,1.0846499243215444,-0.4158922624500136,0.1327496763067641,-0.4424526197621433,0.17486892637802384,0.1728456626069279,0.49551495467074635,1.066820129434536,0.0
0.34045393858477974,0.18187374690297448,0.3448480054973564,1.077521951458041,-0.3563986431751678,0.12229228773830784,-0.5228694284228121,0.16860715604854615,0.16706281816964796,0.4949377817386579,1.0709689524201722,0.0
0.3604806408544726,0.18942066528948429,0.37734591932549044,1.0714116444271933,-0.3055153515423817,0.11061223660936229,-0.584002556447279,0.16340652432195762,0.16226855479181265,0.49432587236895703,1.0751127945603784,0.0
0.38050734312416556,0.1975471829736785,0.4063258842097098,1.0661773813755955,-0.2617131525798907,0.09803667293829953,-0.6287781835531375,0.1589515961802424,0.15823357674861538,0.49367926950755014,1.0792513650260465,0.0
0.4005340453938585,0.2061827693242701,0.4317793175295803,1.061699651942122,-0.2238864716736693,0.08490312538438922,-0.6566773776955139,0.1551562298660377,0.1546911278082388,0.49299801853525244,1.083384373358051,0.0
0.4205607476635514,0.2152573873891366,0.4537309032433259,1.0578755365849217,-0.19120576786001506,0.07141493471448153,-0.6744095334953852,0.15220459482581625,0.1519536848061218,0.49228216726460267,1.087511529487638,0.0
0.44058744993324434,0.22470328941683992,0.4722951013851652,1.0546258041571162,-0.16248662139027903,0.05774410209152864,-0.6835416311476444,0.1499483389253271,0.1498942049911447,0.4915317659365077,1.09163254375678,0.0
0.4606141522029373,0.23445482394781325,0.48757672654866635,1.051890758999266,-0.13675225789250112,0.04404837870031021,-0.6847861695609215,0.14826432298110245,0.14838822961825945,0.49074686721671645,1.0957471269385064,0.0
0.48064085447263016,0.24444824258796022,0.4996709320073481,1.04962653748967,-0.1132110754798055,0.030470230814223575,-0.6789073943043319,0.14703516459660065,0.14731850142229033,0.48992752619212343,1.0998549902572035,0.0
0.5006675567423231,0.2546215943478068,0.5086675879923273,1.0478016205890257,-0.09124584503221422,0.017136968655829383,-0.6666631079197097,0.14612040470370186,0.14654559032025066,0.48907380036690284,1.1039558454088796,0.0
0.520694259012016,0.26491469362077835,0.5146549636485785,1.04639269802002,-0.07044612845028257,0.00416160240054408,-0.6487683127642652,0.14540235996595452,0.1459523630271457,0.48818574965847245,1.108049404581401,0.0
0.540720961281709,0.2752692467948565,0.5177276587039057,1.0453812205614716,-0.05057387292741816,-0.008356683746903217,-0.6259143073723648,0.14492614149455027,0.14558285269272483,0.48726343639328856,1.1121353804746905,0.0
0.5607476635514019,0.2856291180491546,0.5179935627149056,1.0447547728968338,-0.03132238323189433,-0.020333359171821434,-0.5988337712459108,0.1446291374008642,0.14537720762990058,0.48630692530247177,1.116213486320892,0.0
0.5807743658210948,0.2959404973307804,0.5155689640812933,1.0445053267413806,-0.012472307772659619,-0.03169630236433373,-0.5681471596256151,0.1444374669715853,0.14526237510450168,0.4853162835172637,1.1202834359044958,0.0
0.6008010680907877,0.3061521115789066,0.5105807124063091,1.0446271453781855,0.006090931840237207,-0.04238510664039241,-0.5344402138029338,0.1442756870438744,0.14516351609732947,0.48429158056431554,1.1243449435824273,0.0
0.6208277703604806,0.31621549454269415,0.5031691481893767,1.0451146511973175,0.02437529095660447,-0.05235056718267754,-0.49827302711425603,0.14403878193711425,0.14497653272970815,0.4832328883608088,1.128397724304094,0.0
0.6408544726301736,0.32608534485056173,0.4934925153933781,1.0459594334458677,0.042239112427510966,-0.06155391955762359,-0.4601676187473031,0.1436948176631284,0.1446692171168531,0.48214028120940733,1.1324414936313905,0.0
0.6608811748998665,0.3357198458601094,0.4817250504773843,1.0471494122807499,0.05949894174410461,-0.06996703463321377,-0.42065575377950803,0.1432900769792976,0.144287985065681,0.48101383579304297,1.1364759677586627,0.0
0.6809078771695595,0.34508081839505056,0.46804862674705744,1.0486703242231474,0.07604559711988047,-0.07757228978044825,-0.3802627573617239,0.142815040207741,0.14382507321787694,0.47985363116953333,1.1405008635326255,0.0
0.7009345794392524,0.3541338770092628,0.452652930710613,1.0505055727406698,0.09176242587611932,-0.08436114408738275,-0.3394427153467263,0.14213802989420224,0.14315103063819995,0.4786597487660336,1.144515898472236,0.0
0.7209612817089452,0.3628488172526603,0.43574701216987743,1.0526324695209746,0.10634483901524205,-0.09033234184914371,-0.29855988808804684,0.14137694381141594,0.14238201672117012,0.4774322723733215,1.1485207907885173,0.0
0.7409879839786382,0.37119943842013386,0.4175310583736777,1.055025787976542,0.11966592277837185,-0.09549329245131083,-0.2580475301083578,0.14061479772058375,0.14160231619262728,0.4761712881399164,1.1525152594043386,0.0
0.7610146862483311,0.3791633119021196,0.3981936740992861,1.057660307726434,0.1317259874946002,-0.09985904462019374,-0.2182876084441434,0.13978727226677382,0.14074994413546715,0.47487688456603344,1.156499023974139,0.0
0.7810413885180241,0.38672186472591724,0.37792764118988287,1.0605090074930106,0.14243498832883225,-0.10345041164012055,-0.17956835099634058,0.13892660744246513,0.13985749995495908,0.47354915249737217,1.1604718049036047,0.0
0.801068090787717,0.393860182303881,0.3569158788981862,1.063544067410888,0.15175299589387134,-0.10629368044245367,-0.14216344011665746,0.1381244812633759,0.13901717825513354,0.4721881851187405,1.1644333233692916,0.0
0.82109479305741,0.4005665846784512,0.3353201187285097,1.0667396094196813,0.15977710043965776,-0.10842019655598402,-0.10632580567651678,0.13738100700238026,0.13823055477340293,0.4707940779475151,1.1683833013381941,0.0
0.8411214953271028,0.40683243454574264,0.313292493364573,1.0700717350562718,0.16660628182953122,-0.10986519389370167,-0.07224986688588278,0.13669467810325528,0.13749727523155278,0.46936692882693704,1.1723214615872586,0.0
0.8611481975967957,0.4126519413711063,0.29097534126818275,1.0735185006051438,0.17233827744359975,-0.11066687468058121,-0.04008403934397714,0.13606220470348315,0.13681504877458064,0.4679068379192454,1.1762475277228392,0.0
0.8811748998664887,0.41802196721895274,0.2685012923923228,1.077059828765627,0.17706640802416423,-0.11086561335182357,-0.009936933562117965,0.13549163577080522,0.13619274341238005,0.46641390769864727,1.1801612242000974,0.0
0.9012016021361816,0.4229417949158139,0.24599138484305916,1.0806777444570517,0.18089578457123237,-0.11050330535006703,0.01811540008782702,0.13495915545600654,0.13560738886999296,0.46488824294412573,1.184062276342339,0.0
0.9212283044058746,0.4274130017753892,0.22356034297876465,1.0843556665692176,0.18389610560829261,-0.10962270574823643,0.0440299800915286,0.13447461579265096,0.1350694859465195,0.4633299507320861,1.1879504103602934,0.0
0.9412550066755675,0.43143922684522434,0.20131125349175774,1.0880786846310937,0.18615090309380616,-0.1082669457057206,0.06778800212579458,0.1340485400805729,0.13459016512670932,0.4617391404288412,1.1918253533713281,0.0
0.9612817089452603,0.4350259410406294,0.17933570977025493,1.0918338511457535,0.18775832573298942,-0.10647904415593647,0.08939507748920664,0.13367869226362233,0.13416764154094857,0.4601159236829352,1.1956868334186013,0.0
0.9813084112149533,0.43818026626327466,0.15771626113226137,1.0956100936022648,0.1888121228255711,-0.10430154199436277,0.1088751080786848,0.13335912882830617,0.1337964515965642,0.4584604144173082,1.1995345794901475,0.0
1.0013351134846462,0.44091081390805803,0.13652738223916905,1.0993980168007649,0.18939615992500738,-0.10177611410992404,0.12627139422193615,0.1330851856378667,0.13347253478170876,0.45677272882130043,1.2033683215379,0.0
1.0213618157543392,0.44322752637387747,0.11583562329097252,1.1031897446524401,0.18958639258376564,-0.09894308335227969,0.141651537882216,0.13285110211113768,0.13319119930129555,0.45505298534249783,1.2071877904966422,0.0
1.041388518024032,0.44514152880259467,0.0957001214358586,1.106978737143067,0.18944962453134667,-0.09584056340144421,0.15512599754177453,0.1326485762919296,0.13294442030778236,0.45330130467841884,1.2109927183028915,0.0
1.061415220293725,0.44666499748875915,0.0761734343082246,1.1107595219528563,0.18903924048946186,-0.092504236418098,0.16681634916731178,0.13247574616658916,0.13272541252017617,0.4515178097680436,1.2147828379137142,0.0
1.081441922563418,0.4478110266268907,0.05730145690657813,1.1145275412365168,0.18840096418301833,-0.08897129176813001,0.17664723249839898,0.1323220100931662,0.13248734728319103,0.44970262578318554,1.2185578833254664,0.0
1.101468624833111,0.44859357222331103,0.039127279821015014,1.1182782809994731,0.18753698814781855,-0.08530940381517842,0.18309439764757898,0.13218465961652986,0.13229662628436828,0.44785588011970645,1.2223175895924638,0.0
1.1214953271028039,0.44902722060845685,0.021682419257291332,1.1220081886467128,0.18649538236198032,-0.08156140901573894,0.1873997399719742,0.1320654350889897,0.13214750987105628,0.4459777023885754,1.2260616928455754,0.0
1.1415220293724968,0.4491269381392866,0.004985876541487286,1.1257145832032183,0.18531972782527015,-0.07775131514618341,0.19050469347777715,0.13196339200137863,0.13203148148633723,0.44406822440677224,1.229789930310744,0.0
1.1615487316421895,0.4489079251179158,-0.010950651068541154,1.129395496705361,0.1840456751071399,-0.07389037883166379,0.19304681572598087,0.13188617302371305,0.13194074690576438,0.44212758018803616,1.2335020403274277,0.0
1.1815754339118825,0.4483855310389711,-0.026119703947233376,1.1330496613606653,0.1827082327652186,-0.06998946875905035,0.19504550363067236,0.13183650786467124,0.13187062304957334,0.4401559059334601,1.2371977623669645,0.0
1.2016021361815754,0.4475752217325937,-0.040515465318870396,1.1366764752241691,0.18134069317519558,-0.06606499615811909,0.19622363004656115,0.1317951944938668,0.13180541948506072,0.4381533400219318,1.2408768370508576,0.0
1.2216288384512684,0.4464925817439448,-0.054131999432444684,1.1402754818510508,0.17995033134408514,-0.062136099264629326,0.19644484467448914,0.1317872676491714,0.13177273341065274,0.43612002300042185,1.244539006168978,0.0
1.2416555407209613,0.4451532013326333,-0.06696902056557558,1.1438471429705641,0.17858305597566945,-0.05822259023887572,0.19567545128768055,0.1317918663396867,0.13175290148457003,0.4340560975741196,1.2481840126976884,0.0
1.2616822429906542,0.44357265073925384,-0.0790275296689737,1.1473922339721068,0.17725455007713642,-0.054343996287761175,0.19392969755572678,0.1318055295326916,0.13174327187864604,0.43196170859641764,1.2518116008178803,0.0
1.2817089452603472,0.4417664125579687,-0.09031190906425608,1.1509117493016618,0.17597576647775282,-0.05051891269997419,0.19125417938934933,0.1318253602585116,0.1317414079176518,0.42983700305874556,1.2554215159329298,0.0
1.3017356475300401,0.43974981299803184,-0.10082997799684376,1.1544068205736717,0.17475356360049477,-0.04676463581091097,0.18771384445316094,0.13186215719527025,0.13175851145901726,0.4276821300802533,1.2590135046865651,0.0
1.321762349799733,0.43753793494146803,-0.11059390282818966,1.1578790403942114,0.17361099102698252,-0.04309684213174288,0.18338968395840513,0.13188462099133866,0.1317630405844393,0.4254972408973459,1.262587314980648,0.0
1.341789052069426,0.4351455996148805,-0.11961676632937836,1.1613295317534618,0.17252456796251703,-0.03952978446714526,0.1783528832298806,0.13190780257756612,0.1317703349704534,0.4232824888530689,1.266142695992867,0.0
1.361815754339119,0.4325872810165641,-0.12791592991581865,1.1647593988561955,0.1714933551366829,-0.03607606279066071,0.17268608382422662,0.1319301797140364,0.13177885923950933,0.42103802938634616,1.2696793981943417,0.0
1.3818424566088119,0.4298770521768216,-0.1355114419871232,1.1681696836067437,0.1705142375274106,-0.032746636876812174,0.16647129569242736,0.13195045585033632,0.13178726927163764,0.4187640200210709,1.2731971733671346,0.0
1.4018691588785048,0.42702853701744986,-0.14242575796858792,1.171561329152076,0.1695822772666151,-0.029550866446087194,0.15978852153624898,0.13196783795687508,0.1317947084490625,0.4164606203550497,1.276695774621672,0.0
1.4218958611481975,0.42405486765940903,-0.1486834679020418,1.174935158826535,0.16869148372296053,-0.026496564048571876,0.15271511987576578,0.13198180707253693,0.1318005809204841,0.4141279920488021,1.2801749564140723,0.0
1.4419225634178905,0.4209686475256263,-0.15431100668913583,1.1782918635816144,0.16783523775396073,-0.02359005848883351,0.14532527798691824,0.13199203754800423,0.13180447375914742,0.4117662988142137,1.283634474563378,0.0
1.4619492656875834,0.41778192026374317,-0.1593363630941569,1.1816319953998298,0.16700659091076736,-0.0208362664417534,0.1376896023540056,0.13199836177309898,0.13180612442346082,0.40937570640304727,1.287074086268695,0.0
1.4819759679572764,0.4145061443791356,-0.16378879423037823,1.184955965547041,0.16619850736056088,-0.018238770059668504,0.129874819104245,0.13200051307589183,0.13180516216157462,0.4069563825953091,1.2904935501262298,0.0
1.5020026702269693,0.41115217354155265,-0.16769854187914723,1.1882640398963822,0.16540371746706442,-0.015799901758376894,0.12194341506458034,0.1319983249514439,0.13180130913494717,0.4045084971874737,1.2938926261462367,0.0
1.5220293724966623,0.4077302421232256,-0.17109657091635086,1.1915563371455038,0.16461486245608337,-0.013520834659272413,0.11395335495522405,0.13199275514039327,0.13179543266112304,0.4020322219805673,1.2972710757698567,0.0
1.5420560747663552,0.4042499551971003,-0.17401434630626672,1.194832860585487,0.16382617199916477,-0.011401656153123075,0.10595892530746694,0.13198459028202525,0.1317882250142331,0.3995277307681099,1.3006286618858631,0.0
1.5620827770360481,0.4007202835557493,-0.1764835820675483,1.1980935245649185,0.163033198971574,-0.009441444487928134,0.098010583259747,0.13197388428050846,0.13177962841677485,0.3969951993239177,1.3039651488473027,0.0
1.582109479305741,0.39714956354726083,-0.1785360004244231,1.2013381587495013,0.16223170922913835,-0.007638359081638938,0.09015427031445972,0.1319610058940867,0.13176990072131095,0.39443480538976705,1.3072803024880322,0.0
1.602136181575434,0.3935455008688286,-0.18020313392160958,1.2045665214533494,0.1614181351924026,-0.005989730078017433,0.08243145018107527,0.13194461858645667,0.1317575472321327,0.39184672866291986,1.3105738901391553,0.0
1.622162883845127,0.38991517850064195,-0.18151611840933235,1.2077782614291375,0.16058699878939997,-0.004492185576747618,0.07487722506349083,0.13192655053394814,0.13174433940880792,0.3892311507835117,1.3138456806453502,0.0
1.64218958611482,0.3862650670979217,-0.18250557013601296,1.2109729746412496,0.15973566060560365,-0.003141697553290077,0.06752440117287696,0.131907420875751,0.1317308043369659,0.38658825532180363,1.3170954443810947,0.0
1.6622162883845129,0.38260103870982193,-0.18320141940498721,1.2141502242924038,0.15886248255770677,-0.0019336559751230759,0.060402078908350046,0.1318874504893053,0.13171706492800644,0.3839182277652987,1.3203229532667808,0.0
1.6822429906542056,0.37892838322765454,-0.18363277410837037,1.2173095485973162,0.15796621524561982,-0.0008629475543511163,0.05353542103859798,0.13186496965587005,0.13170124231618657,0.38122125550572394,1.3235279807847222,0.0
1.7022696929238985,0.37525182725323625,-0.18382779872091565,1.2204504105437952,0.15704309732394825,7.587664637665159e-05,0.046941210036388396,0.13184240316981946,0.13168574737231778,0.37849752782587825,1.3267103019950528,0.0
1.7222963951935915,0.3715755545922023,-0.18381363305169565,1.223572271590159,0.1560930523181792,0.0008885899493548781,0.04063566514891133,0.13182000268974453,0.13167082800906446,0.37574723588634806,1.329869693551513,0.0
1.7423230974632844,0.3679032283603152,-0.1836163115943549,1.2266746007335863,0.15511645717137135,0.0015812869564573258,0.03463485035512241,0.1317974477007659,0.13165604401222278,0.3729705727120911,1.3330059337171258,0.0
1.7623497997329773,0.36423801433193215,-0.1832607014191526,1.229756864608063,0.15411319372383248,0.002160287689106554,0.028950036632461387,0.13177466902535184,0.13164120996146217,0.37016773317888907,1.336118802379758,0.0
1.7823765020026703,0.36058260547984444,-0.18277044260438458,1.232818524825374,0.1530830108655463,0.0026320445782910514,0.02358784445922485,0.13175204430286233,0.13162668392244603,0.3673389139996707,1.339208081067569,0.0
