time,x,x_dot,z,z_dot,theta,theta_dot,u1,u2,x_ref,z_ref,theta_ref
0.0,0.5748453837732472,0.06673386691671651,1.047904460184225,0.09468981922802258,-0.10526657683505607,0.029384668650043466,0.05632342034529371,0.057007621920222906,0.5,1.0,0.0
0.020026702269692925,0.5760024556009217,0.05785359138372443,1.0475462505926143,-0.017910479580528424,-0.10413200617213945,0.05672853314583162,0.074535943914202,0.07558798981548784,0.4999824541392403,1.0041887412073853,0.0
0.04005340453938585,0.5769248588507357,0.04612016249070355,1.0454800921230953,-0.10330792347594751,-0.10215675847642525,0.09876238478571038,0.09335440633720006,0.0942971027992261,0.4999298177883902,1.0083771884344908,0.0
0.06008010680907877,0.5775574742823211,0.031630771579268226,1.0422607370061738,-0.16096775584607384,-0.099429091344557,0.13638335659341325,0.10762849142126199,0.10847401417780012,0.49984209464164997,1.0125650477216688,0.0
0.0801068090787717,0.5778630124007201,0.015276905919950567,1.038309207466722,-0.1975764769725941,-0.09602748826415855,0.17008015401992066,0.11904745052450902,0.11979349706127682,0.49971929085573213,1.0167520251505358,0.0
0.10013351134846463,0.5778170187055244,-0.0022996847597851477,1.0339623739226629,-0.21734167720295022,-0.09203223552584935,0.19976263691546148,0.12804501685668135,0.12868521270744368,0.4995614150494292,1.0209378268645999,0.0
0.12016021361815754,0.5774063988749438,-0.020530991529028975,1.0294856618106618,-0.22383560560005727,-0.08752866487834134,0.2251785323754011,0.13500508229014294,0.13553729477773524,0.49936847830300873,1.0251221590898847,0.0
0.14018691588785048,0.5766278334316194,-0.038928272166219684,1.025084409370879,-0.22006262198913762,-0.08260374270087971,0.246246108873082,0.14027087105831373,0.140696564984063,0.499140494157436,1.0293047281555483,0.0
0.1602136181575434,0.5754861587063438,-0.05708373626378213,1.0209140105772598,-0.2085199396809632,-0.07734317964483904,0.2630281528020317,0.1441416719558448,0.14446502870863323,0.4988774786134233,1.0334852405144925,0.0
0.1802403204272363,0.5739928112024258,-0.07466737519589779,1.0170887453012114,-0.19126326380241804,-0.07182925015720046,0.27569647438193023,0.14687497576562478,0.147102059141678,0.49857945013030697,1.0376634027639664,0.0
0.20026702269692925,0.5721643932009586,-0.09142090007336101,1.0136893640103077,-0.16996906454518762,-0.06613928401055673,0.2844983073321855,0.14868661691757065,0.14882467276392386,0.4982464296247522,1.0418389216661577,0.0
0.22029372496662217,0.5700213996221194,-0.10714967894196015,1.0107694363153121,-0.14599638474978238,-0.06034472197606494,0.28972810172459024,0.14962374201723352,0.1496803324355912,0.4978784404692846,1.0460115041687736,0.0
0.24032042723631508,0.5675873741996527,-0.12170127112333903,1.008356707215238,-0.12063645500370634,-0.054510867094399104,0.2916927440832906,0.14957660649224197,0.14955813016812075,0.4974755084906501,1.0501808574256075,0.0
0.260347129506008,0.564888366725893,-0.13495037368797871,1.0064497983813911,-0.09534544169234482,-0.048697821458784527,0.29065228178072927,0.14904012619062304,0.14895597178264916,0.4970376619680023,1.0543466888170925,0.0
0.28037383177570097,0.5619513421630592,-0.1468512281416914,1.0050328666939663,-0.07084658437124573,-0.04295810030842763,0.28698605751784556,0.14837768494876633,0.14823712549845633,0.4965649316309177,1.0585087059708387,0.0
0.30040053404539385,0.5588031423696753,-0.15740998966919537,1.0040863374066957,-0.047326464363530635,-0.037336734418808706,0.2810682944809458,0.14751389112647048,0.14732326067750498,0.49605735065723894,1.0626666167821521,0.0
0.3204272363150868,0.5554702936499591,-0.16664243598580614,1.0035846179212426,-0.025085974272653605,-0.03187363156157993,0.273155142861438,0.14653926179530927,0.14630566770024392,0.49551495467074635,1.066820129434536,0.0
0.34045393858477974,0.5519786148539595,-0.17458393979998377,1.0034987872385173,-0.0042915341362730515,-0.02660296549359264,0.26353330339936454,0.14559518885932676,0.14532571590574037,0.4949377817386579,1.0709689524201722,0.0
0.3604806408544726,0.548352867061897,-0.18128738960312601,1.0038007874320183,0.015100009675054666,-0.02155320252367381,0.25248814849594164,0.14467576488312126,0.1443762171145454,0.49432587236895703,1.0751127945603784,0.0
0.38050734312416556,0.5446166403764441,-0.18681133427264374,1.004463238436377,0.033122550217939264,-0.016748134527727113,0.24025339979733495,0.14373905812779797,0.14341466657824345,0.49367926950755014,1.0792513650260465,0.0
0.4005340453938585,0.5407922867461691,-0.19121768151374913,1.0054582001185361,0.04974808410795967,-0.012207344376948918,0.2270395075389097,0.1427686704966072,0.14242428247265204,0.49299801853525244,1.083384373358051,0.0
0.4205607476635514,0.536900838187487,-0.19457242793410537,1.0067566967922752,0.06492483368695283,-0.007946519188024777,0.21304125944620714,0.14187484013106125,0.14151596190921825,0.49228216726460267,1.087511529487638,0.0
0.44058744993324434,0.5329618915294408,-0.19694733290230987,1.0083320110284193,0.07876571180720528,-0.003976928815768558,0.1984795186128108,0.14104969196460007,0.1406808662901108,0.4915317659365077,1.09163254375678,0.0
0.4606141522029373,0.5289935977109251,-0.19841469092578376,1.0101594519639516,0.09137204677661277,-0.0003062026364984774,0.18353630896350406,0.1402862098850782,0.13991136559493764,0.49074686721671645,1.0957471269385064,0.0
0.48064085447263016,0.525012663516397,-0.19904670972640998,1.0122161539594925,0.10283509977704725,0.0030611745808592026,0.16836886086788397,0.13957147010692483,0.13919454150936914,0.48992752619212343,1.0998549902572035,0.0
0.5006675567423231,0.5210343630090201,-0.198915025368843,1.0144807086091454,0.11322773248264724,0.0061238631589261355,0.15313442890334666,0.13888297905130856,0.13850713669387593,0.48907380036690284,1.1039558454088796,0.0
0.520694259012016,0.5170725534220393,-0.1980904793490398,1.0169325009012629,0.12258961460587739,0.00888305390796325,0.13795953745185568,0.13822427027897985,0.13785243671433953,0.48818574965847245,1.108049404581401,0.0
0.540720961281709,0.513139698220092,-0.19664276009736653,1.0195518234312784,0.130966126500781,0.011342267059728187,0.12296065758824681,0.13761022323799277,0.1372452594200797,0.48726343639328856,1.1121353804746905,0.0
0.5607476635514019,0.5092469033800524,-0.19463974200198061,1.022320327844923,0.13842522068223792,0.013507300760398104,0.10825168503349586,0.1370553252233212,0.13669965046014096,0.48630692530247177,1.116213486320892,0.0
0.5807743658210948,0.5054039656344708,-0.1921468872790839,1.0252214568637545,0.1450564509415701,0.015385875795640776,0.09392875176213356,0.1365529879314661,0.13620863696452395,0.4853162835172637,1.1202834359044958,0.0
0.6008010680907877,0.501619422563728,-0.189227153537138,1.028240250556472,0.15093968463587087,0.016987326521663453,0.0800725363011338,0.13609754699746743,0.1357662204199823,0.48429158056431554,1.1243449435824273,0.0
0.6208277703604806,0.497900605859066,-0.185940835233102,1.0313631793076516,0.15614643755897412,0.01832233257926493,0.06675030288007408,0.13568415201758335,0.1353672464607933,0.4832328883608088,1.128397724304094,0.0
0.6408544726301736,0.49425369719895823,-0.18234543300538755,1.0345780000000835,0.1607410346215877,0.019402675122887583,0.054017127181132434,0.13530858463398862,0.13500721308085153,0.48214028120940733,1.1324414936313905,0.0
0.6608811748998665,0.49068378620175485,-0.17849554986016863,1.0378736299734141,0.16478149866653616,0.02024100960508271,0.041916724109756234,0.1349675853215308,0.1346826755923262,0.48101383579304297,1.1364759677586627,0.0
0.6809078771695595,0.48719493022175636,-0.17444279899992554,1.0412400497159044,0.16832098712451618,0.020850717604250234,0.030485399958376028,0.1346576152392611,0.13438979909040635,0.47985363116953333,1.1405008635326255,0.0
0.7009345794392524,0.48379021479197465,-0.1702357714890853,1.0446681946231915,0.17140724536435248,0.02124567008801572,0.019747624188274478,0.13437606449646258,0.13412576503544382,0.4786597487660336,1.144515898472236,0.0
0.7209612817089452,0.4804718152187358,-0.1659199786619426,1.0481498747120859,0.1740840044447206,0.02144006081710523,0.009719536454475423,0.1341205267214097,0.13388796489283425,0.4774322723733215,1.1485207907885173,0.0
0.7409879839786382,0.4772410583002479,-0.16153784592439563,1.0516776997214636,0.17639125046889112,0.0214482450627596,0.0004092122827186774,0.13388834642982722,0.13367358185545014,0.4761712881399164,1.1525152594043386,0.0
0.7610146862483311,0.47409848350648304,-0.15712873968824198,1.0552449968384123,0.17836485584743367,0.021284611098842405,-0.00818169819585974,0.13367702212385463,0.1334799630414505,0.47487688456603344,1.156499023974139,0.0
0.7810413885180241,0.47104390347478775,-0.1527290015847648,1.058845732677542,0.1800367919564797,0.0209634618493236,-0.01605746247594025,0.13348538972003607,0.13330584722975736,0.47354915249737217,1.1604718049036047,0.0
0.801068090787717,0.46807646431741146,-0.14837195786881566,1.0624744753464654,0.18143713344616746,0.020498939659856247,-0.023226109473367902,0.13331161825389118,0.13314917669513404,0.4721881851187405,1.1644333233692916,0.0
0.82109479305741,0.4651947041324076,-0.14408800925019277,1.0661263345715928,0.18259296125637156,0.019904844486381534,-0.029704758673735586,0.13315450461571146,0.13300852726064458,0.4707940779475151,1.1683833013381941,0.0
0.8411214953271028,0.4623966104440805,-0.139904684416357,1.069796920365951,0.18352928971791316,0.019194456843553195,-0.03551938214141721,0.13301199497417993,0.13288229639996865,0.46936692882693704,1.1723214615872586,0.0
0.8611481975967957,0.4596796752929479,-0.1358467575566303,1.0734822863898676,0.18426830119583015,0.01838089886366201,-0.04067789899455862,0.1328819707752302,0.13276909910936668,0.4679068379192454,1.1762475277228392,0.0
0.8811748998664887,0.45704094779823146,-0.1319363747358218,1.0771788756092924,0.18482946097123895,0.01747772090239514,-0.04515889806334382,0.1327621910202077,0.13266789946921792,0.46641390769864727,1.1801612242000974,0.0
0.9012016021361816,0.45447708576017953,-0.1281931019025955,1.0808834693729992,0.1852296881853436,0.016499864902672377,-0.04889279998613851,0.13264773218115664,0.13257666675751853,0.46488824294412573,1.184062276342339,0.0
0.9212283044058746,0.4519844076914873,-0.12463390343461361,1.0845930820893037,0.18548063581522697,0.015465977124095968,-0.051694388928820154,0.13254116433590504,0.13249297581725153,0.4633299507320861,1.1879504103602934,0.0
0.9412550066755675,0.4495589520396911,-0.12127278258980835,1.0883049611815023,0.18559395460992878,0.014394408418361614,-0.053578435286717824,0.13244951260608515,0.1324174568791863,0.4617391404288412,1.1918253533713281,0.0
0.9612817089452603,0.44719655231743805,-0.1181199861126518,1.0920166982376116,0.18558685280546683,0.013298098331155514,-0.0548155043603048,0.13237082571223882,0.13234971232538928,0.4601159236829352,1.1956868334186013,0.0
0.9813084112149533,0.44489290811133136,-0.1151822103053341,1.0957261921341448,0.18547469482666037,0.012185822668501616,-0.05561378313269485,0.13230282346064007,0.13228988809858389,0.4584604144173082,1.1995345794901475,0.0
1.0013351134846462,0.44264363475670027,-0.11246366773155622,1.0994316159543491,0.18527119101021738,0.011064138029399114,-0.056084231955125394,0.13224350811007227,0.13223729498525744,0.45677272882130043,1.2033683215379,0.0
1.0213618157543392,0.440444296539826,-0.1099669108437138,1.1031313761693118,0.18498801074813787,0.009938430568318902,-0.056285373054010594,0.13219162045408667,0.13219121035917328,0.45505298534249783,1.2071877904966422,0.0
1.041388518024032,0.43829043138075835,-0.10769325795338168,1.1068240825544122,0.18463531925501925,0.008813346286154933,-0.056254214108198315,0.13214628118417665,0.13215104171551656,0.45330130467841884,1.2109927183028915,0.0
1.061415220293725,0.4361775710628444,-0.10564301589569755,1.1105085258527128,0.18422216491502394,0.007693021126642687,-0.056016257975612355,0.13210645306509497,0.1321159599470253,0.4515178097680436,1.2147828379137142,0.0
1.081441922563418,0.43410125855866716,-0.10381562520886235,1.1141836497372497,0.18375619422685252,0.006581247933146696,-0.05558865967479961,0.1320709079429128,0.1320848494260876,0.44970262578318554,1.2185578833254664,0.0
1.101468624833111,0.4320570633918313,-0.10220975834179133,1.1178485158266316,0.18324330446909434,0.0054815667794169045,-0.05498405768648956,0.13203881720089794,0.13205698675560554,0.44785588011970645,1.2223175895924638,0.0
1.1214953271028039,0.4300405958604199,-0.10082337657056928,1.1215022805478088,0.1826882360588541,0.004397349377512123,-0.054210870095239075,0.1320115505700881,0.1320343940473744,0.4459777023885754,1.2260616928455754,0.0
1.1415220293724968,0.4280475207535402,-0.09965375534398825,1.1251442453345306,0.18209823933609576,0.0033323211416912543,-0.053251411791043486,0.1319886564700755,0.1320164379010061,0.44406822440677224,1.229789930310744,0.0
1.1615487316421895,0.4260735698877313,-0.0986975432904446,1.1287738405106085,0.1814797588038945,0.0022904154319843668,-0.0520952854853444,0.13196656718673416,0.13199846434880094,0.44212758018803616,1.2335020403274277,0.0
1.1815754339118825,0.42411455573650225,-0.09795070756145241,1.1323905035109845,0.18083315001879818,0.0012749043853287636,-0.05077555233278014,0.13194666140294276,0.13198260116646243,0.4401559059334601,1.2371977623669645,0.0
1.2016021361815754,0.4221663867663159,-0.09740844850931821,1.1359937310392887,0.1801613764152062,0.00028899879398926545,-0.0492952795669749,0.13192867076488166,0.1319685165188206,0.4381533400219318,1.2408768370508576,0.0
1.2216288384512684,0.42022507988202157,-0.09706534421471578,1.139583070390781,0.17946696757461392,-0.0006642026048432708,-0.047660069941626804,0.13191224367464843,0.13195575626133155,0.43612002300042185,1.244539006168978,0.0
1.2416555407209613,0.4182867726592675,-0.09691536113770349,1.1431581077830075,0.17875186961132988,-0.001581795045325919,-0.04587962202413239,0.13189707812961426,0.13194393382405473,0.4340560975741196,1.2481840126976884,0.0
1.2616822429906542,0.41634773517610124,-0.09695187415831388,1.1467184584737973,0.17801753453948257,-0.002461135193066031,-0.04396700738700561,0.13188293065730344,0.13193274297829902,0.43196170859641764,1.2518116008178803,0.0
1.2817089452603472,0.41440438111312233,-0.09716770314894418,1.1502637589798725,0.1772650253037615,-0.0032998910977508093,-0.041937795234238906,0.13186959611828886,0.13192193594485419,0.42983700305874556,1.2554215159329298,0.0
1.3017356475300401,0.4124532778494288,-0.09755516318467487,1.1537936607622459,0.17649508911866973,-0.00409607601074517,-0.03980924564971804,0.1318569111298357,0.1319113269307953,0.4276821300802533,1.2590135046865651,0.0
1.321762349799733,0.4104911553517491,-0.09810612488398393,1.1573078254708953,0.17570823543247024,-0.004848065992437524,-0.03759949908461765,0.13184475567079887,0.131900791369582,0.4254972408973459,1.262587314980648,0.0
1.341789052069426,0.4085149137178431,-0.09881208169530267,1.1608059217501603,0.17490481396325178,-0.005554603216249757,-0.03532686119061165,0.13183305357277886,0.13189026182680477,0.4232824888530689,1.266142695992867,0.0
1.361815754339119,0.40652162929974917,-0.09966422090469682,1.1642876235406565,0.17408508952480767,-0.00621478865070462,-0.033009271722743344,0.1318216636208927,0.13187960320779873,0.42103802938634616,1.2696793981943417,0.0
1.3818424566088119,0.404508559408445,-0.10065349456520958,1.1677526064056483,0.17324914324958945,-0.006828076843608039,-0.030664409645170903,0.13181051556982953,0.1318687675690292,0.4187640200210709,1.2731971733671346,0.0
1.4018691588785048,0.40247314560908537,-0.10177068996798035,1.1712005461852155,0.17239698897836675,-0.0073942577704763845,-0.02830904634341725,0.13179954882055067,0.13185771906043883,0.4164606203550497,1.276695774621672,0.0
1.4218958611481975,0.4004130156339597,-0.10300649875628352,1.1746311179488897,0.17152858818370897,-0.007913436745728268,-0.025958948762594258,0.13178864993693012,0.13184635688807256,0.4141279920488021,1.2801749564140723,0.0
1.4419225634178905,0.3983259839994748,-0.10435158172424633,1.17804399317455,0.17064376128301936,-0.008386024041245069,-0.023629364775839958,0.13177799956980843,0.13183483865706527,0.4117662988142137,1.283634474563378,0.0
1.4619492656875834,0.39621005133249265,-0.10579663334910616,1.181438845081367,0.16974259534085268,-0.008812753068656313,-0.021336451370562174,0.13176760932441028,0.13182320722392782,0.40937570640304727,1.287074086268695,0.0
1.4819759679572764,0.39406340253191197,-0.10733244002903372,1.1848153497160299,0.1688252317331332,-0.009194655113382548,-0.019095102236311723,0.13175720349017445,0.1318113614438511,0.4069563825953091,1.2904935501262298,0.0
1.5020026702269693,0.39188440372631933,-0.10894994027963108,1.1881731806085563,0.16789154462632433,-0.00953291944273128,-0.01691321646743659,0.13174682859970457,0.1317993298752717,0.4045084971874737,1.2938926261462367,0.0
1.5220293724966623,0.3896715980197633,-0.11064028532780214,1.1915120100887902,0.16694147401169684,-0.009828907565661644,-0.014799406146518137,0.13173650762789055,0.1317871455443893,0.4020322219805673,1.2972710757698567,0.0
1.5420560747663552,0.3874237006265945,-0.11239486965844221,1.194831510282822,0.16597500970159626,-0.010084145062315765,-0.012761874832705937,0.13172625504656102,0.1317748477810278,0.3995277307681099,1.3006286618858631,0.0
1.5620827770360481,0.385139593338939,-0.11420536438277512,1.1981313540402427,0.1649921878710361,-0.010300301576822822,-0.010807825725353012,0.13171608519620112,0.1317624813497647,0.3969951993239177,1.3039651488473027,0.0
1.582109479305741,0.3828183183588562,-0.11606374900413989,1.2014112159049064,0.16399309323317898,-0.010479166375192894,-0.008943239918503572,0.13170601234546966,0.13175009336986176,0.39443480538976705,1.3072803024880322,0.0
1.602136181575434,0.38045907157481923,-0.11796233920184797,1.2046707730867106,0.16297785909020435,-0.01062262198307333,-0.00717278039402178,0.1316960554894619,0.13173773797367744,0.39184672866291986,1.3105738901391553,0.0
1.622162883845127,0.3780611953774817,-0.11989380986687813,1.2079097065773312,0.16194667453103215,-0.010732616016260315,-0.005499701659349326,0.13168622901270682,0.1317254515217679,0.3892311507835117,1.3138456806453502,0.0
1.64218958611482,0.3756241711237882,-0.12185121268467411,1.2111277019074893,0.16089976650790178,-0.010811143563216172,-0.003926377347792796,0.13167631133009453,0.13171297104059004,0.38658825532180363,1.3170954443810947,0.0
1.6622162883845129,0.37314761144186415,-0.123827984096202,1.2143244419512158,0.15983700218632038,-0.010860280273166814,-0.0024568354975320434,0.13166618856551904,0.13170021394689443,0.3839182277652987,1.3203229532667808,0.0
1.6822429906542056,0.3706312523164668,-0.12581795626986736,1.2174996039865904,0.15875810176873176,-0.01088215727210623,-0.00109384994697089,0.1316562765848475,0.13168778679492932,0.38122125550572394,1.3235279807847222,0.0
1.7022696929238985,0.3680749446735444,-0.1278153821461207,1.220652874797844,0.15766354056268103,-0.0108788085822433,0.0001674344931466335,0.13164659311303423,0.13167569588079572,0.37849752782587825,1.3267103019950528,0.0
1.7222963951935915,0.36547864591860135,-0.12981493774715286,1.2237839509563389,0.1565538079247473,-0.010852180357571673,0.0013314112335812798,0.13163714889397676,0.13166394506090895,0.37574723588634806,1.329869693551513,0.0
1.7423230974632844,0.36284241186735344,-0.13181170256239644,1.2268925389556458,0.1554293999653488,-0.010804136530303595,0.002402191363403903,0.1316279473157576,0.13165253197664364,0.3729705727120911,1.3330059337171258,0.0
1.7623497997329773,0.3601663890326763,-0.13380114173385907,1.2299783551411085,0.15429080927313343,-0.01073646350173875,0.003383651428242284,0.13161898415383327,0.13164144683359857,0.37016773317888907,1.336118802379758,0.0
1.7823765020026703,0.35745080724541234,-0.13577908936319855,1.2330411254138025,0.15313851363469871,-0.010650874651010018,0.004279442536436318,0.13161024781452715,0.1316306731328882,0.3673389139996707,1.339208081067569,0.0
