time,x,x_dot,z,z_dot,theta,theta_dot,u1,u2,x_ref,z_ref,theta_ref
0.0,0.5479120971119267,-0.012224312049589542,1.3585979199113825,0.039473605811872786,-0.1623290608449402,0.09512447032735119,0.05632337492295211,0.05632361001394472,0,1,0
0.02004008016032064,0.5473978971313406,-0.025709999029303383,1.3571142968714853,-0.07418115199486043,-0.1604263838695515,0.09513384876943352,0.07024671316719086,0.05632337490494235,0,1,0
0.04008016032064128,0.5465806469468126,-0.040862509226399626,1.3535611351746295,-0.17765808484279233,-0.1696623568236139,-0.4617986477031212,0.061644622947513855,0.05632337679417231,0,1,0
0.06012024048096192,0.5454842248269398,-0.0548211059936397,1.3478132061247898,-0.2873964524919862,-0.183155145133918,-0.6746394155152019,0.05910361872324649,0.05632337491270256,0,1,0
0.08016032064128256,0.5440990649649212,-0.069257993100928,1.3398307537317027,-0.39912261965435725,-0.19887192552033447,-0.7858390193208229,0.05691977456707274,0.05632337490488145,0,1,0
0.1002004008016032,0.5424083451427228,-0.0845359911099213,1.3295779167094983,-0.5126418511102189,-0.21506576619098555,-0.8096920335325561,0.05632337491807144,0.05641948972174977,0,1,0
0.12024048096192384,0.540387641791618,-0.10103516755524271,1.317042423554952,-0.6267746577273161,-0.23118272560834083,-0.8058479708677638,0.05632337529742316,0.05815172486334631,0,1,0
0.1402805611222445,0.5380050077222694,-0.11913170346743121,1.3022437876505342,-0.7399317952208961,-0.24583719554338102,-0.7327234967520079,0.05632337491221508,0.05876704163056521,0,1,0
0.16032064128256512,0.5352316989010233,-0.1386654410623062,1.2851848341289487,-0.8529476760792778,-0.25853694252685294,-0.6349873491736008,0.09886026825787972,0.1021213068897194,0,1,0
0.18036072144288576,0.531733759394238,-0.1748969753392658,1.2670938635202007,-0.9045485304373978,-0.2686280689828111,-0.5045563227979079,0.17468196871820457,0.1790448466216622,0,1,0
0.2004008016032064,0.5268960264201027,-0.24188664870676518,1.2501491259254849,-0.8472368797357881,-0.27522907082469183,-0.33005009209403635,0.21822024851839383,0.22376884731210595,0,1,0
0.22044088176352705,0.520320399138289,-0.32878136409068637,1.2355975374620063,-0.7275794231739313,-0.2773912903393898,-0.10811097573490086,0.230694861414292,0.23673917365059965,0,1,0
0.24048096192384769,0.5118627966078986,-0.4228801265195201,1.2237902631577662,-0.590363715212002,-0.2747180713683684,0.13366094855107377,0.21818651506813416,0.22404262524331106,0,1,0
0.2605210420841683,0.5016110698233598,-0.5125863392269383,1.2143640864940557,-0.4713088331855293,-0.2673599809965342,0.36790451859170903,0.1922384091435395,0.19742325132373154,0,1,0
0.280561122244489,0.48979333270973374,-0.5908868556813024,1.2065742063777634,-0.38949400581461935,-0.25585412916608025,0.575292591522694,0.1625178793943467,0.16680999985775558,0,1,0
0.3006012024048096,0.47668664952041984,-0.6553341594656948,1.1995699177258512,-0.3502144325956091,-0.24091480824669742,0.7469660459691461,0.1359464794773719,0.13932775018021676,0,1,0
0.32064128256513025,0.46254790482086916,-0.7069372349775327,1.192591012233265,-0.3489452746293135,-0.22327077261669878,0.8822017814999278,0.11604441936233464,0.11861520454113775,0,1,0
0.3406813627254509,0.4475797126950583,-0.748409606290542,1.1850681464623498,-0.37614328854576007,-0.20357042896185623,0.9850171827421262,0.10364343459318393,0.10554426222063142,0,1,0
0.3607214428857715,0.4319253217374247,-0.7827195478816805,1.1766474337901585,-0.42103563360957313,-0.18234971828268476,1.061035533958575,0.09795886033926214,0.09932220666376307,0,1,0
0.3807615230460922,0.4156800599109885,-0.8122630913218103,1.1671690531149446,-0.4739190337606895,-0.1600385761107594,1.1155571085962663,0.09757823006782354,0.09850857962294546,0,1,0
0.4008016032064128,0.3989080048204324,-0.8386027545278042,1.156627498377595,-0.5270777368674711,-0.13698333953344202,1.1527618288658676,0.10102924237231987,0.10160066157336366,0,1,0
0.42084168336673344,0.3816575741785803,-0.8625215320926056,1.145129506960478,-0.5748995708558441,-0.11347108908367211,1.1756125224884966,0.10703734612954725,0.10729880592071823,0,1,0
0.4408817635270541,0.36397353248698305,-0.8842020845798634,1.132857120671957,-0.6136193144260536,-0.08974972861500186,1.1860680234335128,0.11458463374277936,0.11456736283505091,0,1,0
0.4609218436873747,0.3459051002277239,-0.903421612962956,1.1200377467387705,-0.6409686966593318,-0.0660421809853404,1.185377381483073,0.1229006538690534,0.12262500658477873,0,1,0
0.48096192384769537,0.3275106488557009,-0.9197225686011514,1.106921150105682,-0.6558298316544338,-0.042555089215219645,1.1743545885060382,0.13140503858945043,0.13088577652633912,0,1,0
0.501002004008016,0.30885975795494264,-0.9325445450379146,1.0937618723341507,-0.6579638885765672,-0.019483292521842464,1.1535898346688584,0.139666842396455,0.13891691597706896,0,1,0
0.5210420841683366,0.2900332881080922,-0.9413234923425228,1.0808060249005906,-0.6477923716780035,0.0029887227056166824,1.123600761372957,0.1473663869411541,0.14639930653320327,0,1,0
0.5410821643286573,0.27112203069326024,-0.9455628707415966,1.0682814358181751,-0.6262294541207758,0.024687268945436703,1.084927311991001,0.15427255274265314,0.1531037256577761,0,1,0
0.561122244488978,0.2522243830724249,-0.9448823810417664,1.0563905490407637,-0.5945443388705751,0.045450973634815824,1.0381852344689562,0.16022019847558353,0.15886743008295517,0,1,0
0.5811623246492986,0.23344342585108413,-0.9390478610670381,1.0453054459333482,-0.5542551553707733,0.06513269689010087,0.9840861627642519,0.16510156140462376,0.16358510724638398,0,1,0
0.6012024048096192,0.21488371286859467,-0.9279856491244729,1.0351647462053373,-0.5070349864005484,0.08360149178288774,0.9234397446393432,0.1688567385746259,0.16719898947076137,0,1,0
0.6212424849699398,0.19664804052622736,-0.9117836171183648,1.0260720933031386,-0.4546326451099278,0.10074431356704439,0.8571410892078322,0.17146756880327513,0.16969257232742055,0,1,0
0.6412825651302605,0.17883441684398163,-0.8906811841122864,1.0180960124827323,-0.3988040410203184,0.1164673468171938,0.7861516625074716,0.17295218948128685,0.17108509182076495,0,1,0
0.6613226452905812,0.1615334035325998,-0.8650506655690923,1.011270937122797,-0.34125376799675805,0.13069688656402628,0.7114769873416235,0.17336024426352617,0.17142671804288173,0,1,0
0.6813627254509018,0.14482595614242166,-0.8353723695089061,1.005599212110503,-0.2835862506146983,0.1433797619317029,0.63414376838383,0.17276843664355282,0.17079412444923242,0,1,0
0.7014028056112224,0.1287818395827013,-0.8022058279860173,1.0010538933711757,-0.22726593696637515,0.15448331457367423,0.5551776320985674,0.171276382477807,0.16928636573939115,0,1,0
0.721442885771543,0.11345865150361134,-0.7661594039544982,0.9975821766791322,-0.17358583460217408,0.16399495196267963,0.4755818694502665,0.169002649666968,0.1670209415310122,0,1,0
0.7414829659318637,0.09890144581539548,-0.7278602844107931,0.9951093035669307,-0.12364365561007308,0.17192129455742114,0.39631712973707744,0.16608079092033312,0.1641298517597842,0,1,0
0.7615230460921844,0.08514291376161678,-0.687926602688935,0.9935428035838023,-0.07832499915642027,0.17828693485205613,0.31828201473174916,0.16265509806331055,0.16075538081259202,0,1,0
0.781563126252505,0.07220405063836731,-0.6469431561624736,0.992776936621423,-0.03829334811896731,0.18313283213767545,0.2422948642809643,0.15887582224062194,0.1570453676324085,0,1,0
0.8016032064128256,0.06009521274830763,-0.6054418945029839,0.9926971956386361,-0.003987049139343515,0.1865143829303119,0.16907753963182323,0.15489374806582207,0.15314786109222234,0,1,0
0.8216432865731462,0.04881745244088351,-0.5638880153712065,0.9931847218582238,0.02437631097938636,0.18849923212966818,0.09924245996781275,0.15085426285169548,0.1492053055836442,0,1,0
0.8416833667334669,0.03836401072957901,-0.5226720855652246,0.9941204777482444,0.04678779450103034,0.18916491811309263,0.03328429917122823,0.14689134461622808,0.14534867353809994,0,1,0
0.8617234468937875,0.028721848620290848,-0.48210810546440824,0.9953890253842476,0.06342738180015906,0.1885964675074612,-0.028422530281577714,0.1431220254050415,0.14169208413327208,0,1,0
0.8817635270541082,0.01987311016044572,-0.44243692299225656,0.9968817727690844,0.07463736924184486,0.18688406406924032,-0.08562017191103997,0.1396424526334605,0.13832901078876061,0,1,0
0.9018036072144289,0.011796434082197244,-0.40383380391242374,0.9984995952238499,0.08089112273827309,0.18412090869583486,-0.13815776867027432,0.136524773335598,0.13532927420663826,0,1,0
0.9218436873747494,0.004468053873173568,-0.3664190104511838,1.0001547585429509,0.08275816595504583,0.18040135767032683,-0.185977551275401,0.1338169568735719,0.1327389366342448,0,1,0
0.9418837675350701,-0.0021373384067466666,-0.33026961399601173,1.0017721507944375,0.08086961257432532,0.1758193964191401,-0.22909806255933896,0.13154381486163746,0.1305813375135338,0,1,0
0.9619238476953907,-0.008045965403224787,-0.295431349823906,1.0032898589294765,0.07588540675194873,0.17046746137209806,-0.26759675235210234,0.12970958805358243,0.12885965642158032,0,1,0
0.9819639278557114,-0.013284553449006309,-0.261929402289076,1.004659167409566,0.06846542400446683,0.16443559075733877,-0.30159353073796497,0.1283014338750134,0.127560345241593,0,1,0
1.002004008016032,-0.017880101888110227,-0.22977742195519593,1.0058440789895187,0.059245578997639825,0.15781086002115877,-0.33123653680899895,0.12729328225019726,0.12665691185848127,0,1,0
1.0220440881763526,-0.021859790778371798,-0.1989844445130785,1.006820466650954,0.048819383071760994,0.15067704414293473,-0.35669079391120195,0.12664961450065912,0.12611362291490608,0,1,0
1.0420841683366733,-0.025250984511628348,-0.16955968666282745,1.0075749627925619,0.03772480708039308,0.1431144459069916,-0.3781299117971549,0.12632887348659283,0.12588884336519454,0,1,0
1.062124248496994,-0.028081292600730005,-0.14151540445508276,1.0081036812775328,0.026435924248551346,0.13519983364052,-0.39573061332357945,0.12628633884022367,0.12593785257646548,0,1,0
1.0821643286573146,-0.03037865505735504,-0.11486812283125161,1.008410853115947,0.015358591920713623,0.12700644109481962,-0.4096696272850189,0.1264764150251881,0.12621508709110416,0,1,0
1.1022044088176353,-0.03217142693630047,-0.08963859394727156,1.0085074404287897,0.00482936564213754,0.11860399321916634,-0.4201223937826654,0.1268543627583161,0.12667584063083576,0,1,0
1.122244488977956,-0.033488443689733735,-0.06585083767166333,1.0084097780949854,-0.004883116690207762,0.11005873268304471,-0.4272630268060808,0.12737754806936863,0.1272774940681643,0,1,0
1.1422845691382766,-0.03435905534736994,-0.04353058288181029,1.0081382792624813,-0.01357494162520658,0.10143343186837829,-0.4312650407333211,0.12800629916516632,0.12798036325603449,0,1,0
1.1623246492985972,-0.03481312293531947,-0.02270337939747676,1.007716230106678,-0.021102457790168908,0.09278738309821082,-0.43230243850837297,0.12870445923811138,0.12874825038263865,0,1,0
1.1823647294589177,-0.0348809749033264,-0.003392598400346756,1.0071686907679933,-0.027376966934229616,0.08417636593424525,-0.4305508581982787,0.1294397123500979,0.12954877368067746,0,1,0
1.2024048096192383,-0.03459332470198291,0.014382510067174448,1.0065215129877576,-0.03235888901178194,0.075652594600021,-0.426188566711213,0.1301837437008836,0.13035353483179263,0,1,0
1.222444889779559,-0.03398115315093484,0.030608577552403572,1.0058004801567115,-0.0360516415523066,0.06726465123610585,-0.419397168195757,0.1309122800611347,0.13113816827004218,0,1,0
1.2424849699398797,-0.033075560990248574,0.04527960803431348,1.0050305718779886,-0.03849541393614377,0.059057412082173646,-0.41036195769660977,0.13160504264681214,0.1318823034651145,0,1,0
1.2625250501002003,-0.03190759812649058,0.05839814318789973,1.0042353523724448,-0.0397609752771919,0.05107197411254578,-0.3992718984813939,0.13224563418977836,0.13256946107780732,0,1,0
1.282565130260521,-0.030508076674171512,0.06997607261595326,1.0034364798499282,-0.0399436261258289,0.04334558939356881,-0.3863192359488477,0.1328213743614808,0.13318689655709204,0,1,0
1.3026052104208417,-0.028907375039359667,0.0800350817405922,1.0026533321487896,-0.03915738505693421,0.035911613702889846,-0.3716987845339483,0.13332309273321355,0.13372539999174554,0,1,0
1.3226452905811623,-0.027135240072082917,0.08860674836383754,1.0019027423926923,-0.03752948780486983,0.028799474925834987,-0.35560693885274297,0.13374488555097466,0.13417905828969776,0,1,0
1.342685370741483,-0.025220593797587783,0.09573231372475668,1.0011988370685008,-0.03519526620957241,0.022034665555175515,-0.3382404685329737,0.13408384112175095,0.1345449844008309,0,1,0
1.3627254509018036,-0.023191350490016027,0.10146216537858772,1.0005529677670923,-0.032293465070419435,0.01563876236655759,-0.31979515943089604,0.1343397384457999,0.13482301822699427,0,1,0
1.3827655310621243,-0.0210742489394948,0.1058550775260613,0.9999737268581704,-0.02896204544609694,0.009629475095000065,-0.3004643635778762,0.13451472370850934,0.13501540390870234,0,1,0
1.4028056112224447,-0.018894703747452224,0.10897725960212887,0.9994670365963237,-0.025334513092335774,0.004020724751486796,-0.2804375171756635,0.13461297013380957,0.13512644911297655,0,1,0
1.4228456913827654,-0.016676678423887016,0.11090126617826042,0.9990363006057081,-0.021536799530780464,-0.0011772488699011963,-0.2598986810693997,0.13464032733292067,0.13516217261402244,0,1,0
1.442885771543086,-0.014442582008963381,0.11170482074618178,0.9986826063796197,-0.017684711304424727,-0.005957751906275437,-0.239025151818712,0.1346039670319278,0.1351299472324796,0,1,0
1.4629258517034067,-0.012213189947704838,0.11146960306292722,0.9984049673735357,-0.01388195030420007,-0.010317475590333296,-0.2179861842028928,0.13451203211050414,0.13503814526485927,0,1,0
1.4829659318637274,-0.01000758905063665,0.11028004485340935,0.9982005934574316,-0.010218695805202092,-0.014256312750873884,-0.19694185802702951,0.13437329723670957,0.13489579489581136,0,1,0
1.503006012024048,-0.007843145605360098,0.10822217226382756,0.9980651789542386,-0.0067707251596515645,-0.017777155026631814,-0.1760421137878967,0.1341968483739946,0.13471225508257878,0,1,0
1.5230460921843687,-0.005735495084848059,0.10538252602560194,0.9979931981850672,-0.0035990384585716318,-0.020885674491180468,-0.15542597322743268,0.13399178560191116,0.13449691355904556,0,1,0
1.5430861723446894,-0.0036985514359510847,0.10184718244484872,0.9979781992737747,-0.000749945564621169,-0.023590093542419026,-0.1352209525619277,0.1337669602044239,0.1342589191011305,0,1,0
1.56312625250501,-0.0017445336285534757,0.09770089036988044,0.9980130881174252,0.0017444421825215765,-0.025900946915543198,-0.1155426686562088,0.13353074726178996,0.13400694947373054,0,1,0
1.5831663326653307,0.00011599300923180542,0.09302633188926406,0.9980903956103347,0.003865374645479694,-0.02783083953629063,-0.09649463103737138,0.13329085713732333,0.13374901858776564,0,1,0
1.6032064128256511,0.0018740631680677332,0.08790350794179638,0.9982025224761885,0.0056063432926881365,-0.02939420367925027,-0.07816820714798246,0.13305418922781193,0.13349232635076144,0,1,0
1.6232464929859718,0.003522248057205407,0.08240924445688369,0.9983419574115133,0.006971746766245835,-0.030607058552191903,-0.060642743647081235,0.13282672764058234,0.1332431509553097,0,1,0
1.6432865731462925,0.005054584264615418,0.07661681037050055,0.9985014655635599,0.007975407602329405,-0.031486775018377926,-0.043985823309301605,0.13261347746352722,0.13300678231349017,0,1,0
1.6633266533066131,0.006466496982061641,0.07059563587231112,0.9986742456269802,0.008639003171012728,-0.03205184772634518,-0.028253635398362245,0.13241843906527243,0.13278749408366847,0,1,0
1.6833667334669338,0.007754719331837289,0.06441111748878242,0.9988540550115041,0.008990469226199449,-0.03232167646673242,-0.013491437019362253,0.13224461654693576,0.13258855039141515,0,1,0
1.7034068136272544,0.008917209251533284,0.05812449598479981,0.999035303570169,0.009062427933241418,-0.03231635814155258,0.0002659162589930073,0.13209405573339653,0.13241224258879483,0,1,0
1.723446893787575,0.009953065119150274,0.05179279338084947,0.9992131172652158,0.008890684752338446,-0.032056490332057666,0.012993390474745313,0.1319679065822301,0.13225995086999928,0,1,0
1.7434869739478958,0.010862441047645926,0.045468796424782576,0.9993833738739492,0.008512830436666823,-0.03156298710023627,0.02467516159106925,0.1318665046295701,0.13213222529259724,0,1,0
1.7635270541082164,0.011646462555790504,0.03920107540722891,0.9995427133943674,0.00796697602091316,-0.030856907363879194,0.035303986817853975,0.13178946618456153,0.13202888084267494,0,1,0
1.783567134268537,0.012307143136823994,0.03303402905167452,0.9996885262050871,0.007290640535984143,-0.02995929594877538,0.04488057075519056,0.13173579223686316,0.13194910143718588,0,1,0
1.8036072144288577,0.012847302099994618,0.027007948158531168,0.9998189222752987,0.006519803510577621,-0.028891037242159193,0.05341293533080922,0.1317039765312474,0.13189154825281504,0,1,0
1.8236472945891782,0.01327048395157091,0.021159092578814598,0.9999326848241712,0.0056881274436271275,-0.027672721243909914,0.06091579991246401,0.13169211381005294,0.13185446832675296,0,1,0
1.8436873747494988,0.013580879508022512,0.015519777822580117,1.0000292118126146,0.004826349422176508,-0.026324521728693248,0.06740997576083348,0.13169800485602676,0.13183580001741302,0,1,0
1.8637274549098195,0.013783248889809389,0.010118469089343829,1.0001084485332017,0.0039618360293490916,-0.02486608618455246,0.07292177720703971,0.13171925563247266,0.13183327258879948,0,1,0
1.8837675350701402,0.013882846523753259,0.004979881697193498,1.0001708143666863,0.0031182916742329924,-0.02331643717235742,0.0774824506097522,0.13175336842338597,0.1318444977987145,0,1,0
1.9038076152304608,0.013885348279182648,0.00012508777146943637,1.000217126514383,0.0023156073848416047,-0.02169388474743525,0.08112762124610835,0.13179782348300298,0.1318670519872898,0,1,0
1.9238476953907815,0.013796780871989154,-0.0044283703596746495,1.0002485232130365,0.0015698349326659375,-0.020015949591986076,0.08389675777245853,0.13185015022217333,0.1318985476881802,0,1,0
1.9438877755511021,0.013623453686022885,-0.008666359298313468,1.0002663886083856,0.0008932697674502763,-0.018299296518235936,0.08583265368750706,0.13190798741876653,0.13193669425065638,0,1,0
1.9639278557114228,0.013371893178275142,-0.012578025387387098,1.000272281119287,0.0002946255450706626,-0.016559678012812336,0.08698092527118019,0.13196913234288152,0.13197934736865954,0,1,0
1.9839679358717435,0.013048780049333644,-0.016155656447074916,1.0002678667781812,-0.0002207170552933676,-0.014811887499131681,0.08738952568403242,0.1320315789971109,0.13202454772492114,0,1,0
2.004008016032064,0.012660889370908096,-0.01939453392127744,1.0002548586952418,-0.0006504041469776337,-0.013069721994611245,0.08710827522602202,0.13209354595788905,0.13207054924514258,0,1,0
2.024048096192385,0.012215033865974077,-0.022292775246700907,1.000234963471365,-0.0009947611938368784,-0.011345953832368713,0.08618840811212655,0.13215349449129055,0.1321158376444223,0,1,0
2.0440881763527052,0.011718010533312288,-0.024851166633089446,1.000209835084912,-0.0012564193226467122,-0.00965231110286375,0.08468213647524818,0.13221013777285937,0.13215914010331808,0,1,0
2.064128256513026,0.011176550796697559,-0.02707298683073646,1.0001810365035229,-0.0014399290694609276,-0.007999466450478587,0.08264223261925807,0.13226244217080918,0.13219942703899987,0,1,0
2.0841683366733466,0.010597274340094845,-0.02896382283013573,1.0001500090292665,-0.0015513737128115127,-0.006397033834680581,0.08012163078990037,0.13230962161155105,0.13223590699446322,0,1,0
2.1042084168336674,0.009986646764814429,-0.03053137876402078,1.000118049174616,-0.0015979927325276153,-0.0048535728368393986,0.07717304989205899,0.1323511260776153,0.1322680156976452,0,1,0
2.124248496993988,0.009350941173860757,-0.03178527954768357,1.0000862926890903,-0.0015878242762882963,-0.00337660006377764,0.07384863865308793,0.132386625325447,0.13229540037747314,0,1,0
