time,x,x_dot,z,z_dot,theta,theta_dot,u1,u2,x_ref,z_ref,theta_ref
0.0,0.5748453837732472,0.06673386691671651,1.047904460184225,0.09468981922802258,-0.10526657683505607,0.029384668650043466,0.06772196474736501,0.07104408967889152,0,1,0
0.02004008016032064,0.5759628627926048,0.055873950967878054,1.0479209797614373,0.0008259788606217039,-0.10202166748686163,0.16224546740972307,0.2219056258355971,0.20225367192875116,0,1,0
0.04008016032064128,0.5764191403638734,0.022813878563431027,1.0502665431830658,0.11727817108142913,-0.11450125559949306,-0.623979405631572,0.06440830727217348,0.05632337494044806,0,1,0
0.06012024048096192,0.5766928479454475,0.013685379078703038,1.0504693232146958,0.010139001581503645,-0.1334320721598869,-0.946540828019692,0.06243827419884174,0.05632337490494102,0,1,0
0.08016032064128256,0.5767653155892336,0.0036233821893049724,1.0484998491542499,-0.09847370302229246,-0.1572244514052872,-1.1896189622700137,0.05908914841476588,0.05632337578607919,0,1,0
0.1002004008016032,0.5766102517464441,-0.007753192139474216,1.0443067227984848,-0.20965631778824972,-0.18318714553185558,-1.2981347063284205,0.07887980913002923,0.07932360432803373,0,1,0
0.12024048096192384,0.5760883587977971,-0.026094647432351382,1.0385125003647167,-0.28971112168840896,-0.20874719053771282,-1.2780022502928565,0.14109781560574763,0.14393475856525412,0,1,0
0.1402805611222445,0.5747977786971524,-0.06452900503223212,1.0329563126088366,-0.2778093877939988,-0.2319918418325897,-1.162232564743845,0.18793778795900298,0.1930508245285007,0,1,0
0.16032064128256512,0.5723388371449446,-0.12294707761038953,1.02900758342133,-0.19743645937533005,-0.2511069606071386,-0.9557559387274458,0.22833180336857944,0.23473136597838593,0,1,0
0.18036072144288576,0.5683050485130278,-0.20168943159583927,1.0278191609621903,-0.05942112295698371,-0.26507345698913465,-0.6983248190998012,0.2433968981680972,0.2505649339617535,0,1,0
0.2004008016032064,0.5624568271221844,-0.29241106954217055,1.0298003362878183,0.09905876628140034,-0.2732871082970725,-0.41068256539689285,0.23985542232939897,0.2469988573121485,0,1,0
0.22044088176352705,0.5547251559723944,-0.38658355748950046,1.034820178776163,0.25099212441723695,-0.27577693490424826,-0.12449133035878873,0.22033413640113075,0.22683339009240316,0,1,0
0.24048096192384769,0.5452145266347665,-0.4755314668813931,1.0422930085547564,0.37364148892966725,-0.273065134843865,0.13559000301915908,0.19252451632129985,0.19813560028257293,0,1,0
0.2605210420841683,0.5341401865648032,-0.5537170034981657,1.051405112892787,0.4556052169015296,-0.26586694771407865,0.35990935648932104,0.16228087010437758,0.16682701630837118,0,1,0
0.280561122244489,0.521766166627555,-0.6187009968624076,1.0612797232794873,0.4937305193350145,-0.25503976894755975,0.5413589383259461,0.13344653365410547,0.13697491819868304,0,1,0
0.3006012024048096,0.508357257756787,-0.6704454435384011,1.0710856655977596,0.4902971159136229,-0.24140339884838222,0.6818185049588803,0.11034196541078634,0.11296088922239747,0,1,0
0.32064128256513025,0.49413338275535,-0.7111937500718483,1.0801584286219712,0.4536381512105795,-0.2256904316123163,0.7856483618032924,0.09281956388802702,0.09469478515988136,0,1,0
0.3406813627254509,0.4792663639057356,-0.7433509424807208,1.0879952488959477,0.39184101369882257,-0.20849991881667543,0.8595256397820451,0.08060334223373355,0.08189296456829442,0,1,0
0.3607214428857715,0.4638825171263001,-0.7691923389717767,1.0942468332998216,0.31257922019369444,-0.19030343354894647,0.9098242633864468,0.07374310833520126,0.0745731121419573,0,1,0
0.3807615230460922,0.44806637570936,-0.7908070708470054,1.0987189538432638,0.22360602717210265,-0.1714708568331296,0.9416288357908424,0.07120971911712064,0.07168767700314786,0,1,0
0.4008016032064128,0.4318728407448036,-0.809676748227818,1.1013433365372314,0.13121913469837693,-0.15228523431119026,0.9592811260969648,0.07214190869516623,0.07234483965372271,0,1,0
0.42084168336673344,0.4153376416962076,-0.8267599524297988,1.1021530506564388,0.040485705960367865,-0.13296736892188618,0.9658932694652033,0.07567630518544677,0.07566488108112424,0,1,0
0.4408817635270541,0.3984865011429325,-0.8425570276637581,1.1012577247223945,-0.0447662967022186,-0.11368902259935494,0.9639173161265616,0.08111106670577617,0.08092559928270257,0,1,0
0.4609218436873747,0.3813419617906878,-0.8572269676122336,1.0988230726512545,-0.12173260355699958,-0.09458931150606371,0.9549855546645628,0.08774698833724293,0.08741888765153696,0,1,0
0.48096192384769537,0.3639286198775833,-0.8706670956552245,1.0950503520006492,-0.1886360325302645,-0.07578190481323739,0.9403703346413154,0.0950340812394759,0.09458308477668181,0,1,0
0.501002004008016,0.3462763001533706,-0.8826159862106349,1.0901599239930695,-0.24452140037897957,-0.05736442614876403,0.9208739332236685,0.1025403305081868,0.10198173542942061,0,1,0
0.5210420841683366,0.32842163977987865,-0.8927330186745969,1.0843782518213463,-0.2890836085861591,-0.039422049881592314,0.8971188133585852,0.1100190446904878,0.10936409229591791,0,1,0
0.5410821643286573,0.31040832751750547,-0.9006656131186586,1.077930319738622,-0.3223966041362093,-0.022030782248156022,0.8695633816718146,0.11715369088695704,0.11641280184292295,0,1,0
0.561122244488978,0.2922868369476577,-0.9060745284923873,1.0710300365274055,-0.3450141605608288,-0.005258147478736472,0.8386317384709776,0.12384600416977827,0.12302503308827872,0,1,0
0.5811623246492986,0.2741133314276093,-0.9086752760024221,1.063877086796427,-0.3576474865489332,0.010833131847622506,0.8045639663179488,0.1299007260512941,0.12900971211523385,0,1,0
0.6012024048096192,0.2559483935908316,-0.9082468918388859,1.056651104626593,-0.3612991084916966,0.026188462113221213,0.7677665132799352,0.13542080288879124,0.13446592989340042,0,1,0
0.6212424849699398,0.2378555057647868,-0.9046443913022394,1.049514641146788,-0.3568231739902517,0.04075826832864561,0.7284903107712201,0.14002320713515584,0.1390158944072019,0,1,0
0.6412825651302605,0.21989941656761144,-0.8978044598587678,1.0426019339578192,-0.3456353594484386,0.054502162878183075,0.6871947274768733,0.1440079834052595,0.14295815875066492,0,1,0
0.6613226452905812,0.2021447414923525,-0.8877337537629465,1.036027896656639,-0.32870186505901294,0.06738772612457467,0.6442781623195807,0.14722275613236893,0.14613893143871579,0,1,0
0.6813627254509018,0.18465447044770789,-0.874513552232231,1.0298837428115601,-0.307207692253937,0.0793893516375436,0.6000812756484466,0.14971620731044874,0.14860724570868422,0,1,0
0.7014028056112224,0.16748876294422083,-0.858285375174353,1.0242386358784605,-0.28225534665498014,0.09048850890116357,0.5549578631809972,0.1516639918061385,0.1505342866956256,0,1,0
0.721442885771543,0.1507042492566502,-0.839225684378531,1.019145035718729,-0.25468000798657475,0.10067015076655378,0.5090820932695119,0.15301186999204622,0.15187046579356747,0,1,0
0.7414829659318637,0.13435309816552007,-0.8175575545565065,1.0146373800814958,-0.2253827818616656,0.10992642465613749,0.462813694479186,0.15374516699254262,0.15259879368533194,0,1,0
0.7615230460921844,0.11848223435192712,-0.7935431906796482,1.010731839916694,-0.19527700824008715,0.11825480702441674,0.4164191184139638,0.15407945390557723,0.1529369445169578,0,1,0
0.781563126252505,0.10313342519977166,-0.767440457607773,1.007432915306049,-0.1649462305322501,0.12565977639649173,0.370248468603746,0.15394938932070712,0.1528146420843708,0,1,0
0.8016032064128256,0.08834270901023525,-0.7395358094768208,1.0047316141394609,-0.13506505832940374,0.13214885555010894,0.3244539576808642,0.15332861982165757,0.15221614312238702,0,1,0
0.8216432865731462,0.07414003514647231,-0.710133693188147,1.0026049964192487,-0.10633088601060567,0.13774109649287783,0.2796120471384445,0.15243675252448086,0.15134894249310554,0,1,0
0.8416833667334669,0.0605498922292575,-0.6795071458607406,1.001022590490251,-0.0791202964498849,0.14245737829923663,0.23581409031793907,0.151182911074517,0.15012893065597782,0,1,0
0.8617234468937875,0.04759097621881009,-0.6479458005223708,0.9999439168293806,-0.05393368304351953,0.14632582239044978,0.1934222045606583,0.1497815063629404,0.14876282722570863,0,1,0
0.8817635270541082,0.035277110698446336,-0.6156932760181877,0.9993247428573394,-0.030958698602055443,0.1493756359200482,0.15249067647992007,0.14810713279790694,0.1471323866273725,0,1,0
0.9018036072144289,0.02361690496654712,-0.5830102865949607,0.9991135463564342,-0.010559825045257938,0.15164284423453986,0.11336041572458304,0.1463956243501921,0.14546373860283743,0,1,0
0.9218436873747494,0.012614944178813394,-0.5500980393866863,0.9992583102548918,0.0072381949228763655,0.15316252649124296,0.07598411283515677,0.14456707754745576,0.14368279678306475,0,1,0
0.9418837675350701,0.0022717189079896546,-0.517161263541187,0.9997042574144046,0.022297357975640482,0.15397347683016582,0.04054751694614188,0.14281966042486463,0.14198221556389043,0,1,0
0.9619238476953907,-0.007415235539980672,-0.4843477223985163,1.000399557246528,0.03476499160617684,0.1541137964347302,0.0070159802282192055,0.14105967939081102,0.14027130280332545,0,1,0
0.9819639278557114,-0.016451469113762034,-0.4518116786890681,1.0012925891288,0.044651594113603296,0.15362330173225053,-0.024524735123985383,0.1394114502778229,0.1386715428056522,0,1,0
1.002004008016032,-0.024844791952076093,-0.41966614191570295,1.0023355028336887,0.052145685244434394,0.15254128314239368,-0.054100929492842675,0.13779994142871077,0.1371105158440028,0,1,0
1.0220440881763526,-0.032605349701621655,-0.3880278874772781,1.0034820126685708,0.057325491744110495,0.15090863685305297,-0.08163231446703555,0.09758882471929256,0.1000997191706838,0,1,0
1.0420841683366733,-0.039912243774045376,-0.365344703621186,1.0036019567663732,0.00599720489011734,0.15128611618603227,0.01887396664896572,0.09335416981592222,0.09444025975529316,0,1,0
1.062124248496994,-0.04679289925850452,-0.34403277422295714,1.0025522902065722,-0.052483327990049615,0.1525321597255199,0.06230217697438035,0.10992442169213601,0.11016135764873339,0,1,0
1.0821643286573146,-0.053174741120222635,-0.31909209308590564,1.0008070441213253,-0.08726230426234388,0.15396669294334836,0.07172666089142499,0.1219420524461229,0.12145824009028965,0,1,0
1.1022044088176353,-0.0590018985638682,-0.29135787218227815,0.9987077197396348,-0.10496621908452602,0.15501294673279342,0.05231268947225519,0.13109715771782915,0.13016752460870015,0,1,0
1.122244488977956,-0.06422936073006501,-0.26137310830984045,0.9965153957926051,-0.10961619735148621,0.15531461365309185,0.015083346014917738,0.1367319472104268,0.13553081481774054,0,1,0
1.1422845691382766,-0.068828708454489,-0.2299673862211996,0.994390481377078,-0.10624572077635508,0.15465512972931583,-0.0329741961888014,0.13991229713856856,0.13859083932983354,0,1,0
1.1623246492985972,-0.07278519407876738,-0.19782428121391885,0.992424005225327,-0.09832380758754876,0.15293902477233132,-0.08580524784922333,0.14117584094514155,0.13982836682827485,0,1,0
1.1823647294589177,-0.07609654555793201,-0.1655675739582311,0.9906527881877816,-0.08856085187727294,0.1501464327937676,-0.13962959892818927,0.14099629539857275,0.13969682982568907,0,1,0
1.2024048096192383,-0.07877124277847825,-0.1337348610273116,0.9890731321729068,-0.07898280074373851,0.14631681842680772,-0.19148071834799163,0.13989161917481505,0.1386865877972935,0,1,0
1.222444889779559,-0.08082612654587118,-0.10274418836964672,0.9876555876421822,-0.07087722653623107,0.1415268363562521,-0.23949910352777948,0.13829738932581978,0.13721155998824086,0,1,0
1.2424849699398797,-0.08228408105245819,-0.07289772532935038,0.9863573198074085,-0.06491339173868751,0.1358729505235702,-0.28269429163409426,0.1365742195012336,0.13562305677360495,0,1,0
1.2625250501002003,-0.08317194429782393,-0.04439316226828752,0.9851324258736894,-0.061244696685953476,0.12946394843639855,-0.3204501043585823,0.13491993169470667,0.1341071346095994,0,1,0
1.282565130260521,-0.08351917488476102,-0.017361529346854136,0.9839374388425569,-0.059749351556628714,0.12241149224928011,-0.3526228093559231,0.13349417700164057,0.1328193706237142,0,1,0
1.3026052104208417,-0.08335675084371043,0.00812120205252919,0.9827358351936613,-0.060080182444783206,0.11482683583525012,-0.3792328207015013,0.13236823517903132,0.13182787958574474,0,1,0
1.3226452905811623,-0.08271653969082436,0.03201055764430312,0.9814999792882281,-0.061792795271660324,0.10681827618600936,-0.40042798246203565,0.13155422008538112,0.1311422291887576,0,1,0
1.342685370741483,-0.08163097474944156,0.054278247069139966,0.9802113512190994,-0.06443140345643097,0.09848910671758705,-0.41645847342111686,0.1310657369593973,0.13077440158248488,0,1,0
1.3627254509018036,-0.08013277877854794,0.07490979854468151,0.978860844480936,-0.06752533690816928,0.0899363153700774,-0.42763956737548225,0.13086295775607054,0.13068354452910666,0,1,0
1.3827655310621243,-0.07825489695803109,0.09389409102584244,0.9774475124899257,-0.07066659955051816,0.08124976693306593,-0.43432742185057327,0.1309161106836896,0.13084012356889319,0,1,0
1.4028056112224447,-0.07603040260697241,0.11122471755293412,0.9759776415850218,-0.07349354524519841,0.07251239858115688,-0.4368684175954531,0.13118783051502253,0.13120695239273047,0,1,0
1.4228456913827654,-0.07349242782247414,0.1268987392249134,0.9744636093602288,-0.0757016112396485,0.0638003707061857,-0.4356013937485599,0.13159672714550055,0.13170308444136644,0,1,0
1.442885771543086,-0.07067417937825808,0.14091242221080277,0.9729214546445913,-0.07710773578187123,0.055183431038208476,-0.430846983398861,0.13214678556517795,0.13233322094504762,0,1,0
1.4629258517034067,-0.0676087332102071,0.15327230840254885,0.9713709823116505,-0.07752361664703976,0.04672549775439106,-0.42289666419087085,0.1327463521786631,0.13300536143899,0,1,0
1.4829659318637274,-0.06432901025951422,0.1639861475346441,0.9698330327588086,-0.07689747764209649,0.03848439227924815,-0.4120552737571457,0.13336950515671664,0.13369331375743235,0,1,0
1.503006012024048,-0.06086758478260265,0.17307127384557836,0.968328704357905,-0.07521642004518475,0.03051163440498714,-0.39863789371305025,0.1339842230630339,0.1343639041653453,0,1,0
1.5230460921843687,-0.05725649299947193,0.18055458915653616,0.9668783907236914,-0.07251568171067944,0.022851532559699652,-0.3830050922643747,0.15564354318654444,0.16082603642163829,0,1,0
1.5430861723446894,-0.05350582246731637,0.18753352660777795,0.9661957191052403,-0.034133580922559116,0.019345778833185563,-0.1752876863257045,0.14440632893713037,0.14705865015888742,0,1,0
1.56312625250501,-0.04966006009452057,0.19228811863978973,0.9659105700515676,-0.014257452683634975,0.017965165260226512,-0.0690306786479526,0.14225773394459335,0.14369996947363534,0,1,0
1.5831663326653307,-0.04573601600406538,0.19620220452275972,0.9659413107901984,0.0015370369315444478,0.017739519745472186,-0.011282275737716244,0.14008557867771418,0.14070574948857664,0,1,0
1.6032064128256511,-0.04174099833301086,0.19975088355272583,0.9662112223640478,0.013495578692470624,0.018010193419820752,0.013533683717428385,0.13814358373920355,0.13823068425932822,0,1,0
1.6232464929859718,-0.037677187061789644,0.20319056356106108,0.9666546641553246,0.02217208956384257,0.01835032803821235,0.017006730919579792,0.13633063324814088,0.1360856410262504,0,1,0
1.6432865731462925,-0.03354460979417705,0.2066288633806299,0.9672128208165979,0.027907833063660546,0.01849419215507813,0.007193205843289238,0.13471444395079474,0.13427740589866982,0,1,0
1.6633266533066131,-0.02934290478294301,0.21008525056170194,0.9678348313564139,0.03110052699080044,0.01828830991469583,-0.010294112019115124,0.13331601966535345,0.1327834980797782,0,1,0
1.6833667334669338,-0.025072371077585868,0.21352668526785704,0.9684777795171927,0.03214740803894159,0.017656576816170715,-0.031586654926256064,0.13214583368180136,0.13158095661787636,0,1,0
1.7034068136272544,-0.020734541912525793,0.21689145825300363,0.969106512447942,0.031436646537465404,0.01657346350661499,-0.05415566547778582,0.13114769319232522,0.13059387895575134,0,1,0
1.723446893787575,-0.016332481026907642,0.22010304428090757,0.9696916806570939,0.029258410457596522,0.015048212483684473,-0.0762625511465259,0.1304108880478605,0.1298957462352604,0,1,0
1.7434869739478958,-0.011870812845010164,0.22308340909487384,0.9702121417449244,0.026023054391528317,0.013112161746458526,-0.09680253686129708,0.1300491842379474,0.1295933692384272,0,1,0
1.7635270541082164,-0.007355634043509765,0.22575894007501995,0.9706582137812495,0.022303601816253134,0.010813158465277478,-0.11495016405905253,0.12992595943783233,0.12953954430517384,0,1,0
1.783567134268537,-0.0027944859963960067,0.22805740235568792,0.971027450956069,0.018461858740974498,0.008207074514137776,-0.1303041975569851,0.1299929914011937,0.12967838287895805,0,1,0
1.8036072144288577,0.001803775476899268,0.2299130736647637,0.9713230835767246,0.014781631032779668,0.005351661133947096,-0.14277066900953408,0.13027037986285375,0.13002603181525213,0,1,0
1.8236472945891782,0.006429158954080251,0.23126917385904916,0.9715545384691869,0.011572744623116608,0.002303380578648767,-0.15241402776491636,0.1305199995724186,0.13034620898514646,0,1,0
1.8436873747494988,0.01107066767042103,0.23207543581703896,0.9717303945499913,0.008792804040217053,-0.0008811214955667303,-0.1592251037107749,0.1309064788233108,0.13079946319920663,0,1,0
1.8637274549098195,0.015716531304162475,0.23229318168707228,0.9718631920548492,0.00663987524289014,-0.004148282391233686,-0.16335804478334776,0.13133291108421724,0.13128665537453094,0,1,0
1.8837675350701402,0.020354386388582443,0.23189275422099836,0.97196651736679,0.005166265597041454,-0.007449406954888884,-0.16505622818275986,0.1317702222764238,0.1317838135218688,0,1,0
1.9038076152304608,0.024971473647842746,0.23085436296301512,0.9720542114846749,0.004384705894246301,-0.010736581784914323,-0.16435874150127194,0.13240649068681484,0.1324760110599908,0,1,0
1.9238476953907815,0.029554781801584277,0.2291654076870765,0.9721458955765502,0.004584204593766092,-0.013965078656350107,-0.1614248435717892,0.1327796792402418,0.13289735967370142,0,1,0
1.9438877755511021,0.034091324969227114,0.22682715838214187,0.9722532187862967,0.005366160487326673,-0.017096431946548054,-0.15656766450989718,0.13310519856923264,0.13326043762442707,0,1,0
1.9639278557114228,0.03856830885346573,0.22384919421193078,0.9723862094398902,0.006649532679674304,-0.02010069730395618,-0.15021326787040643,0.13341437971642062,0.1336017332548963,0,1,0
1.9839679358717435,0.04297328238871033,0.22024867676223003,0.9725542860393326,0.008403829972119449,-0.02295231607033764,-0.14258093831907276,0.13359855465775042,0.1338149250104454,0,1,0
2.004008016032064,0.04729432803686202,0.2160522824075843,0.9727630794133124,0.010439668698992198,-0.02562823269421034,-0.13379583119363522,0.13372265265196306,0.1339624139281628,0,1,0
2.024048096192385,0.05152015500396029,0.21129134835491345,0.9730163297741071,0.01266251803973474,-0.02810991382941399,-0.12408405676018223,0.1649070611275171,0.16185543754387735,0,1,0
2.0440881763527052,0.05561783492848647,0.2048839962263093,0.9741886708680396,0.05861705469662591,-0.03303065461936075,-0.24603703949733785,0.14068887981377132,0.13951414297397619,0,1,0
2.064128256513026,0.05959486485503619,0.19885149632748603,0.975589390171862,0.07003596519111784,-0.03888626836316188,-0.292780687190057,0.14076429881594546,0.1403983172106798,0,1,0
2.0841683366733466,0.06343048244345313,0.191780879420847,0.9772318526906625,0.08212312594002838,-0.0450286063522956,-0.30711689945668535,0.13898676391413403,0.13922513635308256,0,1,0
2.1042084168336674,0.067102155875003,0.183583671577493,0.9790712690221177,0.09197081657276383,-0.050973826984728764,-0.29726103162165823,0.13783009531501683,0.13845425194021524,0,1,0
2.124248496993988,0.07058604445838769,0.17419442916923483,0.9810778642724315,0.10032976251568643,-0.05641356113916264,-0.27198670772169464,0.1366871495346962,0.13754238766822321,0,1,0
2.1442885771543083,0.07385958601213911,0.16367707768757106,0.9832199144367133,0.10710250821409026,-0.06116357949408397,-0.2375009177460657,0.13545578318924112,0.13642715790891546,0,1,0
