time,x,x_dot,z,z_dot,theta,theta_dot,u1,u2,x_ref,z_ref,theta_ref
0.0,0.8063436218297209,-0.08646434752767339,1.172730814100364,-0.005491058804152682,0.0709711107755254,-0.09206838897907708,0.06045204831503295,0.056323375038670916,0,1,0
0.02004008016032064,0.8047370123003024,-0.08033047647092346,1.1704266440992115,-0.1152085000576281,0.06582680478623165,-0.25721529946468835,0.08468484317998291,0.05632337490861239,0,1,0
0.04008016032064128,0.803278537747063,-0.0729237276619644,1.166286225886504,-0.20702091063536543,0.03799362491644062,-1.3916589934895516,0.0662983853804971,0.05632337492393753,0,1,0
0.06012024048096192,0.8019395590541508,-0.0669489346456134,1.160038491918139,-0.3123866984182496,0.0021835279848180017,-1.7905048465811308,0.06596470672630327,0.056323374905039324,0,1,0
0.08016032064128256,0.8006693959139503,-0.0635081570100272,1.1516811258093713,-0.41786830543838815,-0.04133468893929173,-2.175910846205486,0.06032224134241354,0.05632337490488846,0,1,0
0.1002004008016032,0.7994030060888075,-0.06331949125713442,1.1411318387942961,-0.5274643507537559,-0.08804896969594356,-2.335714037832591,0.05839041780933821,0.05632337491340628,0,1,0
0.12024048096192384,0.7980663894659024,-0.06683083114525881,1.1283605637764815,-0.6385637508907258,-0.13641508028613306,-2.418305529509475,0.056323374919413235,0.05632337490527801,0,1,0
0.1402805611222445,0.7965830229214775,-0.07416832722123991,1.1133316647489797,-0.7514449513750927,-0.18478119087632258,-2.418305529509475,0.05632337492297794,0.05792017396329269,0,1,0
0.16032064128256512,0.7948694896765935,-0.0856766622441972,1.0960595392560126,-0.8636062746483496,-0.23187135659079794,-2.3545082857237696,0.1119487646177135,0.11681966604139206,0,1,0
0.18036072144288576,0.7925332607824178,-0.11681144470878524,1.0781988802201312,-0.8930329517940719,-0.2750691208258289,-2.1598882117515528,0.1808394649957909,0.18893490012408387,0,1,0
0.2004008016032064,0.7889381599860162,-0.17975503982007646,1.0617497543236054,-0.8224562948262852,-0.31179657860307797,-1.8363728888624513,0.2865802705788982,0.2966828865587368,0,1,0
0.22044088176352705,0.7829960647576011,-0.297104761420757,1.0496967204322702,-0.602651694566759,-0.3404473939760937,-1.4325407686507865,0.283590341566458,0.2966828866601931,0,1,0
0.24048096192384769,0.7744167860112803,-0.4289639373160403,1.041905831099194,-0.38954446665381437,-0.358628471886979,-0.9090538955442639,0.28367046792129985,0.2966822520448688,0,1,0
0.2605210420841683,0.762966619792504,-0.5725083109388134,1.0382992912617128,-0.18032699187405324,-0.36640184287801203,-0.3886685495516492,0.2367473982898964,0.24852394004808173,0,1,0
0.280561122244489,0.748993112396077,-0.6986753698213491,1.0375045727239767,-0.0397359268868126,-0.3647542651014747,0.082378888826867,0.19933882343507642,0.20884301010479697,0,1,0
0.3006012024048096,0.7328531666866479,-0.8069972854714539,1.038435598277932,0.0465512776977758,-0.35550334830885216,0.4625458396311279,0.17114161875641445,0.1787087127128354,0,1,0
0.32064128256513025,0.7148643540410102,-0.8994406322818828,1.0402886117533054,0.09265067376866827,-0.34019901538437575,0.7652166462238135,0.14941970976950453,0.1553190814804112,0,1,0
0.3406813627254509,0.6953041624369587,-0.9780095802025762,1.0424539793712955,0.10826838089949911,-0.32017573778687314,1.001163879875132,0.13262680884966632,0.1370106533255144,0,1,0
0.3607214428857715,0.6744110641437842,-1.0446549146587274,1.044465036987026,0.10055288078652888,-0.296646087633995,1.1764825076439098,0.11980967473501083,0.12298176342843851,0,1,0
0.3807615230460922,0.6523858981751108,-1.101258298433664,1.0459702102611794,0.0752586637076634,-0.27057946897766727,1.3033309328163813,0.11021732154170455,0.11253201676968402,0,1,0
0.4008016032064128,0.6293960974341518,-1.1494900370479506,1.0467112376285619,0.037051368369122185,-0.2426617232084334,1.395887288461693,0.10252211247720422,0.10420269873786406,0,1,0
0.42084168336673344,0.6055876974733558,-1.190419998039799,1.0464834260512734,-0.011390578864426994,-0.2134000323365708,1.4630845435931326,0.09802360833321923,0.09920553637698183,0,1,0
0.4408817635270541,0.5810771991164736,-1.2255249178441106,1.0451719210356525,-0.06557525078104595,-0.18319320380953935,1.510341426351572,0.09310708613288463,0.09381570879505524,0,1,0
0.4609218436873747,0.5559802228051939,-1.2548488155639856,1.0426468268395885,-0.12625470980319695,-0.15241973576691098,1.5386734021314163,0.09166415362783693,0.0920348932355661,0,1,0
0.48096192384769537,0.5303874760533138,-1.2796373375940056,1.0388776616909556,-0.18845825743164843,-0.12134981646411973,1.5534959651395641,0.0887162052238025,0.08875419558709795,0,1,0
0.501002004008016,0.5043955385364759,-1.2995968758418959,1.033787206355882,-0.2545227667536892,-0.09024951953895721,1.5550148462581261,0.08833912055293076,0.0881406835583035,0,1,0
0.5210420841683366,0.478087108133333,-1.3154215201571464,1.0273720398605417,-0.32075832476700894,-0.05930789544212024,1.547081204841848,0.08854974235426624,0.08809618705129559,0,1,0
0.5410821643286573,0.4515428173215521,-1.3272145405890439,1.0196431997229554,-0.38644200687931685,-0.028728941910862213,1.5289476765629018,0.09412288381868102,0.09344524085743293,0,1,0
0.561122244488978,0.42483381909634843,-1.3354499112601834,1.0107682609604185,-0.44374693812684035,0.0013081506897396488,1.501854630030093,0.10292194393840096,0.10197757380692955,0,1,0
0.5811623246492986,0.39803762477291194,-1.3398097161718259,1.001007617996948,-0.4880321481735189,0.03059008797400733,1.4640968642133843,0.11385002953312037,0.11263317815126139,0,1,0
0.6012024048096192,0.3712458196951028,-1.339590253890458,0.9906822789430892,-0.5162669526929389,0.058898961469821286,1.4154436747906982,0.1259293454797438,0.12439965376702264,0,1,0
0.6212424849699398,0.34456744264538947,-1.3339188524856667,0.9801437826338719,-0.5269248154608641,0.08598457191598749,1.354280522308309,0.1381286336567663,0.13629275030967297,0,1,0
0.6412825651302605,0.31812838101671037,-1.321953081433954,0.9697437385563259,-0.5200022038773028,0.11160201439539856,1.280872123970555,0.1500731104298176,0.14794304778244294,0,1,0
0.6613226452905812,0.2920684783208273,-1.3029951347941537,0.9598224377146346,-0.4960650420845671,0.13551596587063933,1.195697573762036,0.1603433796439576,0.157950595094615,0,1,0
0.6813627254509018,0.2665337394224662,-1.2767369449180528,0.9506672680427626,-0.4577584835935991,0.15751623703177353,1.1000135580567096,0.16938517520694954,0.16679404765515557,0,1,0
0.7014028056112224,0.24167186480419983,-1.2430937309133188,0.9425268694743618,-0.40701992842003587,0.17744410778589903,0.9963935377062758,0.17643049513487502,0.1736961089238708,0,1,0
0.721442885771543,0.21762366200122685,-1.2024101401486493,0.9355893156165611,-0.34687769289003545,0.19518490390866383,0.8870398061382427,0.18162931522957007,0.17879461779837214,0,1,0
0.7414829659318637,0.1945179778908331,-1.1552842055196872,0.9299875332805283,-0.2800891168016423,0.21065829894946927,0.7736697520402701,0.1841505394735977,0.1812587060850913,0,1,0
0.7615230460921844,0.17246222514661144,-1.1027876372110832,0.9257764293253451,-0.21055519775916115,0.22381850422593103,0.658010263823088,0.18461258806890135,0.181713663738096,0,1,0
0.781563126252505,0.15154128975784006,-1.0460467694385693,0.9229524076065158,-0.1412010859414648,0.23465977086189493,0.5420633317981929,0.1833722706592666,0.18051651929405887,0,1,0
0.8016032064128256,0.13181689883364375,-0.9862195462098161,0.9214648647213919,-0.07437714425619124,0.2432165706624589,0.42783999002819706,0.18051579022433656,0.17772962625556557,0,1,0
0.8216432865731462,0.11332652853268443,-0.9245185150479659,0.9212192057661758,-0.012282947760807232,0.24954452088736664,0.316397511245388,0.176315627080192,0.17366213355566945,0,1,0
0.8416833667334669,0.09608480509391448,-0.8620861719384971,0.9220858037379714,0.043329898589781035,0.2537497187940023,0.21025989533178424,0.17100138085867392,0.16850322769004974,0,1,0
0.8617234468937875,0.0800852289984406,-0.7999788047736939,0.92390630476454,0.09102505132842878,0.25595641183633866,0.11033465211681157,0.16498316214358946,0.16266606711957135,0,1,0
0.8817635270541082,0.06530419427194299,-0.7390517363248803,0.9265054312494789,0.12995632424694276,0.2563094333726908,0.01765107681760905,0.15873238991864,0.156606570027533,0,1,0
0.9018036072144289,0.05170589450464794,-0.6799149883647526,0.9297040499123711,0.15993093314460838,0.2549617991021289,-0.06738171352809824,0.15239545555164313,0.15046077315848302,0,1,0
0.9218436873747494,0.03924504323883435,-0.6230425632906795,0.9333228548301064,0.18094024588676313,0.2520664203224832,-0.14476893898227977,0.14642540561510525,0.14469183717518402,0,1,0
0.9418837675350701,0.027871928661747602,-0.5686557288543374,0.9371950860528897,0.1936115611391673,0.24778419260404969,-0.21411138592167797,0.14093337734839811,0.1393934057204131,0,1,0
0.9619238476953907,0.017534592933711644,-0.516866786401798,0.9411690685057047,0.19869912264075176,0.24226999887888692,-0.275709686258139,0.13600824475703918,0.13464967027111652,0,1,0
0.9819639278557114,0.00818067341435095,-0.46769597596803464,0.9451103331294991,0.19706323118971963,0.23566896208865099,-0.33005183951179357,0.13177110855006094,0.13058674087282263,0,1,0
1.002004008016032,-0.00024077986802542584,-0.4210726641188188,0.948904870663063,0.18972687667819507,0.22812045179945603,-0.3774255144597518,0.12820505350979455,0.1271858773022361,0,1,0
1.0220440881763526,-0.007778794268962726,-0.376900720046865,0.9524583934825359,0.17767614097364842,0.21975662377317115,-0.4181914013142439,0.13268879627146118,0.13261292761164625,0,1,0
1.0420841683366733,-0.014427961154969015,-0.33245834430031446,0.9559204881114004,0.17310473144322167,0.21133210294193683,-0.4212260415617145,0.12685439661683212,0.1266473785685664,0,1,0
1.062124248496994,-0.0202584408418046,-0.29152398434177934,0.9591278448504698,0.16036783695346557,0.20274197354909476,-0.4295064696421046,0.12424821640449271,0.12392765745072047,0,1,0
1.0821643286573146,-0.02531769082886277,-0.25296249935290843,0.9620100837467735,0.1441119448151919,0.19389540645483616,-0.4423283547129288,0.12247331468912043,0.1221051868580704,0,1,0
1.1022044088176353,-0.029647350836364272,-0.21648300037507506,0.9645214942123391,0.12557052327827792,0.18475434861979365,-0.45705289175212804,0.12134560698956637,0.12097632153704266,0,1,0
1.122244488977956,-0.03328528851017075,-0.18189688369032384,0.9666355873916012,0.10570465896310108,0.1753178747654863,-0.471823692715367,0.12076387561688914,0.12042231008781283,0,1,0
1.1422845691382766,-0.036266824336184035,-0.14907679130066415,0.9683419996277508,0.08532061180748195,0.16560816065398717,-0.48548570557495563,0.12060802468947797,0.12031517839737267,0,1,0
1.1623246492985972,-0.03862581050612286,-0.1179493084969413,0.9696429322511221,0.06504663116856597,0.15566418055236636,-0.49719900508104026,0.12083837250241265,0.1206062057713406,0,1,0
1.1823647294589177,-0.04039512748721652,-0.08846584905468297,0.970551882673471,0.045447521117447244,0.14553447624872534,-0.506485215182053,0.1213548628428747,0.12119162437733676,0,1,0
1.2024048096192383,-0.04160735549215411,-0.06061140024687935,0.9710906672211236,0.02693922738262574,0.13527418787261558,-0.5130144188054885,0.1221533014137004,0.12206165658533133,0,1,0
1.222444889779559,-0.04229489660912661,-0.03437705584862499,0.971289203599154,0.009926818901521948,0.12494058749288607,-0.5166800189864755,0.12315023888568752,0.12313160319122224,0,1,0
1.2424849699398797,-0.04249037755487232,-0.009774047287285571,0.9711830274948999,-0.005308805212708623,0.11459207935356966,-0.5174254069658211,0.12426944349163727,0.12432285927784106,0,1,0
1.2625250501002003,-0.04222691739307363,0.013173008089934355,0.9708109927809597,-0.018601735697011387,0.10428630155508345,-0.5152888899243093,0.1254430860424531,0.12556735070611133,0,1,0
1.282565130260521,-0.041538258742986535,0.03443293250435473,0.9702132423205008,-0.029887523022945985,0.09407993020835753,-0.5103185673362968,0.12667175329165092,0.12686374629314787,0,1,0
1.3026052104208417,-0.04045860187328114,0.053982843485269896,0.9694311669585448,-0.03910376809779765,0.08402714526293298,-0.5026392472712288,0.12794125945152138,0.12819778919162397,0,1,0
1.3226452905811623,-0.03902247075881276,0.07180655572341887,0.9685069632538496,-0.04621018523476375,0.07417957373987503,-0.492378576152896,0.12916407626310375,0.12948123021116412,0,1,0
1.342685370741483,-0.03726474466701458,0.08788630458990919,0.9674810225579249,-0.051297034796233834,0.06458571307300565,-0.47969303334346947,0.13027513820108994,0.1306474440130667,0,1,0
1.3627254509018036,-0.03522053886861919,0.10221028991976913,0.9663899712522455,-0.05455256528397016,0.05528968334868999,-0.46480148621578204,0.1314157688790066,0.13183809075119196,0,1,0
1.3827655310621243,-0.03292462017704648,0.11479593457863536,0.9652708457711919,-0.055956274052677404,0.046331496524052516,-0.4479093412318746,0.1324110220693006,0.13287630435788447,0,1,0
1.4028056112224447,-0.03041151362810539,0.1256553274470547,0.9641558972499511,-0.05574742606204109,0.037745520594985954,-0.429298796453328,0.13324767023798675,0.1337509902653185,0,1,0
1.4228456913827654,-0.027715206749732445,0.1348153439186471,0.9630722397078155,-0.05418287710677737,0.029562185846179836,-0.4091667374403054,0.13399627428873248,0.13453092040541845,0,1,0
1.442885771543086,-0.024868777024451016,0.1423214862640715,0.9620439292588815,-0.05141552244670321,0.02180655366935069,-0.3877816088414572,0.1346212846718134,0.13518177474536439,0,1,0
1.4629258517034067,-0.02190420201761398,0.14822875034185173,0.9610909547281083,-0.04764872653865622,0.014499300066076774,-0.3653626801636955,0.13510741465428408,0.13568820784701024,0,1,0
1.4829659318637274,-0.01885215069550955,0.15260256610522152,0.9602288133810752,-0.04310706735165532,0.007656668612236083,-0.34213157269203454,0.1354681976307438,0.13606460929808237,0,1,0
1.503006012024048,-0.015741774963035887,0.1555187866236831,0.9594689574458682,-0.037992796760352235,0.0012911553223291573,-0.31827566449534633,0.13569937280578778,0.136305145204485,0,1,0
1.5230460921843687,-0.012600545480837305,0.15706147410992913,0.9588186799547308,-0.03251387455687468,-0.004589749866887567,-0.2940452594608362,0.15639754210974566,0.16025669001695983,0,1,0
1.5430861723446894,-0.009453258966289822,0.15736432572737413,0.9589395723625925,0.006044620393085523,-0.00738339011770197,-0.13968201254072005,0.1501754191358952,0.15216795304782196,0,1,0
1.56312625250501,-0.0063265306084851385,0.15633641789023414,0.9596195786613613,0.034000314938435125,-0.008583009459204167,-0.05998096707510989,0.14420183776702938,0.14538166527958113,0,1,0
1.5831663326653307,-0.003231477636582681,0.15475264859512286,0.960669593994794,0.05250076667163746,-0.008838767469814412,-0.012787900530512243,0.1398142690983865,0.14044678637939564,0,1,0
1.6032064128256511,-0.0001720610166176563,0.15297083099825123,0.9619514720304229,0.06409390178144402,-0.0085885116721671,0.012512789882365587,0.13649510454651653,0.13676445216332545,0,1,0
1.6232464929859718,0.0028515741776831247,0.15118175971503905,0.9633614816622064,0.07050048158917431,-0.008122777787820171,0.023286694217346502,0.13390607061637347,0.13394202762829857,0,1,0
1.6432865731462925,0.005841129546243339,0.1494777684280107,0.9648194649195948,0.07289916286942313,-0.007628278297052974,0.024724974538359985,0.13203029665058744,0.13192233785264856,0,1,0
1.6633266533066131,0.008798921877475236,0.14788961656159486,0.9662677285742749,0.07241318273400321,-0.007220145834077238,0.02040662314878674,0.13067413974758196,0.13048343735208442,0,1,0
1.6833667334669338,0.011727200677499789,0.14641394000122762,0.9676648808019116,0.06985761138183404,-0.006964575274793247,0.012778527964199494,0.1297395963170991,0.12950803811172884,0,1,0
1.7034068136272544,0.014627749263232072,0.14502742928661416,0.9689826386162597,0.06588789071740421,-0.006894251273755651,0.0035162000518798413,0.129141563354021,0.12889708760508772,0,1,0
1.723446893787575,0.01750167392185238,0.14369623293101544,0.9702030985470845,0.06102299654124608,-0.007019507871381104,-0.006262829881272778,0.12879337691493115,0.12855454796965687,0,1,0
1.7434869739478958,0.020349314029302755,0.14238200537251858,0.9713160297215424,0.05564655872289454,-0.007335827623727181,-0.015815987617303802,0.1286603818961769,0.12843932592597315,0,1,0
1.7635270541082164,0.023170217861166922,0.14104519159320833,0.9723177516181947,0.05008609483261317,-0.007828992143388887,-0.024658225983085383,0.12869237057248595,0.12849641642612777,0,1,0
1.783567134268537,0.02596317094212203,0.1396476540477554,0.9732095752452732,0.044591181353925306,-0.00847891996107381,-0.032496390884246155,0.12883796382185198,0.12867123195569843,0,1,0
1.8036072144288577,0.028726257106398836,0.1381543082138402,0.9739962330063828,0.03933288805548131,-0.009262233243510089,-0.03916566412181384,0.12906326194234066,0.12892744085765848,0,1,0
1.8236472945891782,0.03145693651053652,0.13653397020688426,0.9746848378654326,0.03443024295248686,-0.010154203360357286,-0.044598505842359935,0.12934060266653016,0.12923599824863785,0,1,0
1.8436873747494988,0.034152134988080306,0.1347599238771894,0.9752840428650011,0.029960249978430067,-0.011129856978228589,-0.04878268089356482,0.1296468602459273,0.1295725967479513,0,1,0
1.8637274549098195,0.036808339067866104,0.13281020398929005,0.9758033381361074,0.025964763555313936,-0.012164921366204071,-0.0517532193987742,0.1299606953816759,0.1299162395041802,0,1,0
1.8837675350701402,0.039421693763913496,0.13066773480236973,0.9762524236159715,0.022454273993203742,-0.013235550437124878,-0.05353145354604028,0.13027679859191557,0.1302574256805022,0,1,0
1.9038076152304608,0.04198809586467472,0.12832010503806104,0.9766409897905162,0.01942830872723159,-0.01432167782829394,-0.054306369558453166,0.13053464036478477,0.13054169149798092,0,1,0
1.9238476953907815,0.0445033070310574,0.12576055831913407,0.9769770146990963,0.01680124542900683,-0.015402164316233253,-0.05402432439696563,0.1307934238090741,0.13082371816055893,0,1,0
1.9438877755511021,0.04696301199983354,0.12298524843880713,0.9772684516406039,0.014571847075382137,-0.016458415337131594,-0.052812551044916965,0.13107506605136363,0.13112476065278134,0,1,0
1.9639278557114228,0.04936289052201197,0.11999392610892115,0.9775238697217212,0.012770904055865272,-0.017474910699072792,-0.050824768097060075,0.13131885528221302,0.1313854619963451,0,1,0
1.9839679358717435,0.05169871716912103,0.11679133235545291,0.9777506765062927,0.011340339228568844,-0.01843812071723722,-0.04816050090822125,0.13152869532716957,0.13161024742041502,0,1,0
2.004008016032064,0.05396642388296141,0.11338533569201914,0.9779552427882136,0.010228314096042156,-0.01933608909107007,-0.04489841869164243,0.13170367715462356,0.13179555695410367,0,1,0
2.024048096192385,0.05616215792406232,0.10978670205504544,0.9781428378880882,0.009379754993730286,-0.020160553654953655,-0.04122322819417916,0.16482095064233615,0.1606544220424297,0,1,0
2.0440881763527052,0.05826466191120869,0.10512519935731868,0.9792313889806713,0.05442755462915616,-0.02431823996589694,-0.20788431554716458,0.1401740323096384,0.13853106330339343,0,1,0
2.064128256513026,0.06028392932926622,0.10096337090287658,0.980528065376628,0.06483381979783044,-0.02979029012147413,-0.27360250777885897,0.1407667506683547,0.14012460862241036,0,1,0
2.0841683366733466,0.06220200992897787,0.09590402998558267,0.9820648648402573,0.07683997318146751,-0.03577604622267675,-0.29928780506013125,0.13859595213065293,0.1386961095107155,0,1,0
2.1042084168336674,0.06399772920735593,0.08978596391890277,0.9837878721222889,0.086150364101578,-0.041681677855251606,-0.2952815816287426,0.13695249468320567,0.1375208865454056,0,1,0
2.124248496993988,0.06564800437036174,0.08251375815029045,0.9856545497335863,0.09333388056487317,-0.0471326039274476,-0.2725463036098,0.13534717563303236,0.13619486844798243,0,1,0
2.1442885771543083,0.06713064914890994,0.07413223892740992,0.9876205783786526,0.09830143225331336,-0.05190538582251991,-0.23863909475361558,0.1338140650333265,0.13480982453256238,0,1,0
