time,x,x_dot,z,z_dot,theta,theta_dot,u1,u2,x_ref,z_ref,theta_ref
0.0,0.1462613138950113,0.005698229034040561,1.263650239801926,0.062338553401921404,0.004091542080289472,0.055867934479557485,0.05632337498015995,0.05660478576697411,0,1,0
0.02004008016032064,0.1463820267677131,0.006035643635091524,1.2626489468100512,-0.050064649593743585,0.005433085114597555,0.06707715171540414,0.06185946725519618,0.05632337490658039,0,1,0
0.04008016032064128,0.1465098018851736,0.006388755873023505,1.2594793375216489,-0.15848046442012398,0.0023446135485570645,-0.15442357830202458,0.05976675406614083,0.05632337490488134,0,1,0
0.06012024048096192,0.14664680263545504,0.0068500375140724675,1.2541124944924487,-0.26834215146000817,-0.0034956953665566505,-0.2920154457556857,0.0583421485506849,0.05632342786327099,0,1,0
0.08016032064128256,0.14678764727202637,0.007042231828566305,1.246529842044053,-0.3791326224197854,-0.010944916673567937,-0.37246106535056417,0.05729110722506247,0.05632337490878425,0,1,0
0.1002004008016032,0.14692245264260245,0.006740268528804338,1.236718723217393,-0.4905559413329904,-0.019160122825508528,-0.41076030759702936,0.05656377733739281,0.056323375147237655,0,1,0
0.12024048096192384,0.14703879332224304,0.0058170339820297606,1.2246716060675742,-0.6023558574909433,-0.027558372166037383,-0.4199124670264431,0.056323478461259395,0.05653694873689025,0,1,0
0.1402805611222445,0.14712295097739014,0.004207882757355223,1.210391631635964,-0.7139987215805144,-0.03577631148556153,-0.4108969659762065,0.05912761475785041,0.05986403416385755,0,1,0
0.16032064128256512,0.14715841840389543,0.0017733713252639396,1.1939734079111877,-0.8209111862388142,-0.043395859441347696,-0.38097739778930917,0.10180247356768815,0.10280110851382361,0,1,0
0.18036072144288576,0.1470854134222982,-0.0036502490798618246,1.176688325637808,-0.8642541136689816,-0.050208104692798586,-0.34061226257254457,0.131490218763907,0.13287748881717695,0,1,0
0.2004008016032064,0.14684260823371656,-0.012140259429081427,1.159421893875757,-0.8633215881025452,-0.05590325358952343,-0.2847574448362419,0.1524909732571374,0.15407714134748818,0,1,0
0.22044088176352705,0.1463722281433571,-0.023519004517972876,1.1427972281290295,-0.8312332873363727,-0.06032363508485505,-0.22101907476658225,0.16543361498643155,0.16707720704372656,0,1,0
0.24048096192384769,0.14562729644459993,-0.03724658493785811,1.127195312538056,-0.7800957795486764,-0.06342483788449349,-0.1550601399819211,0.17280634213014598,0.17440688665481938,0,1,0
0.2605210420841683,0.14457331554657768,-0.0526990449011125,1.1128301697118876,-0.7182571413084244,-0.06524274556112887,-0.09089538383176884,0.17610044544675013,0.17759649742276856,0,1,0
0.280561122244489,0.14318866458195753,-0.06923254823100736,1.0997942143128927,-0.6517977699497485,-0.06586222711696428,-0.03097407779177059,0.17650155864004036,0.17785427648220103,0,1,0
0.3006012024048096,0.141463584453597,-0.08625400641802722,1.0880940703870419,-0.5850071962925435,-0.06539902367118808,0.023160172288808865,0.17489936337718612,0.1760919488302439,0,1,0
0.32064128256513025,0.13939847290719365,-0.10325557732016773,1.0776774187904516,-0.5208325798295153,-0.06398213111036236,0.07084462804128638,0.1721108587863429,0.17313783680345868,0,1,0
0.3406813627254509,0.13700162642257124,-0.1198423242311199,1.0684573865672302,-0.4610016111610664,-0.061744870777944535,0.11186301662089193,0.16879240638302373,0.16966211703930278,0,1,0
0.3607214428857715,0.13428701416615194,-0.13573061282096535,1.0603321251094935,-0.40626307288683616,-0.05881383368335275,0.14655185472958882,0.16512004787594675,0.1658362244093833,0,1,0
0.3807615230460922,0.13127295758710372,-0.1507028289524106,1.0531898607183128,-0.3571132195590355,-0.05531254629182645,0.17506436957631522,0.16146893598657852,0.16204554265986543,0,1,0
0.4008016032064128,0.12798052599670348,-0.16462157952001197,1.0469200450263303,-0.3134907845991192,-0.05135326777949491,0.19796392561657675,0.15794716463495595,0.15839669046871852,0,1,0
0.42084168336673344,0.12443256672520016,-0.17739796357516613,1.0414164294506163,-0.27518077878569597,-0.04703816587701448,0.21575509512402205,0.15468357981510816,0.15502004504397032,0,1,0
0.4408817635270541,0.12065285950768465,-0.1889853608757755,1.0365808115716926,-0.24178089394619168,-0.04245809118305279,0.22900373469808347,0.15174070229817402,0.15197769014126228,0,1,0
0.4609218436873747,0.11666553229989088,-0.19936636038968805,1.0323248041889916,-0.2128003691350504,-0.037692931346165325,0.23825799184437405,0.14912782296985827,0.14927764178042413,0,1,0
0.48096192384769537,0.11249468185766204,-0.2085425221114419,1.028570032069854,-0.18773860595688047,-0.0328126382192766,0.24401465634443628,0.14685167336665625,0.14692545793233538,0,1,0
0.501002004008016,0.10816409400402319,-0.2165293926819424,1.0252482690517737,-0.16608815090402398,-0.02787817506761479,0.24672315758309035,0.1448946386830488,0.144902774903636,0,1,0
0.5210420841683366,0.10369706698979847,-0.22335135071123555,1.0223008726252358,-0.147369821326889,-0.022942124546201505,0.2468025260706643,0.14323246626084518,0.14318379842686824,0,1,0
0.5410821643286573,0.09911629239804882,-0.22903872958748248,1.0196780202023064,-0.131142621146478,-0.01804993124175903,0.2446096652221237,0.14182957843437682,0.1417325951674533,0,1,0
0.561122244488978,0.09444378001515705,-0.2336256191445888,1.0173376354334023,-0.11701923844520762,-0.013240194719143323,0.24048682613078526,0.1406539904179494,0.14051611632603175,0,1,0
0.5811623246492986,0.08970079976044854,-0.23714901273542593,1.0152444167186887,-0.10466093573567867,-0.008545529325984591,0.2347332696579366,0.13968446999760578,0.1395122333098353,0,1,0
0.6012024048096192,0.08490783433787577,-0.23964827112863812,1.013369191571477,-0.09376125736058073,-0.003993289092151412,0.22761201169165898,0.13888523703190334,0.13868421972818387,0,1,0
0.6212424849699398,0.08008455002829286,-0.2411642154791459,1.0116878426109321,-0.08406744802724223,0.0003936682572342061,0.2193478674692809,0.13821837707286935,0.13799329313793296,0,1,0
0.6412825651302605,0.07524976923272467,-0.24173903977840988,1.0101801743758667,-0.07538341175327186,0.004596280809824354,0.21013062762950732,0.13766693765718793,0.13742172461925345,0,1,0
0.6613226452905812,0.0704214400233377,-0.24141646046934892,1.0088294049663735,-0.06753847047466023,0.008598656096398954,0.20011876432873021,0.13721061223636494,0.13694926984346634,0,1,0
0.6813627254509018,0.0656166101084915,-0.24024149574231005,1.007621572047483,-0.06039164594452047,0.01238811648277001,0.18947301931855273,0.13682271283101974,0.13654847751231372,0,1,0
0.7014028056112224,0.06085139988613228,-0.23826051111796084,1.0065447385958133,-0.05384167258349253,0.0159545842207538,0.17832338689918967,0.1364859494256862,0.13620204554472115,0,1,0
0.721442885771543,0.056140977530937594,-0.2355211177597344,1.0055884892050448,-0.04781246953841666,0.019290568336631734,0.16679920579389648,0.13618884197300332,0.13589808364580616,0,1,0
0.7414829659318637,0.051499538023330654,-0.23207197538034693,1.0047435930574196,-0.042244807381262156,0.022390833146242125,0.15501324048051937,0.13591880510749602,0.1356237893977549,0,1,0
0.7615230460921844,0.04694028585892464,-0.22796260822030096,1.004001637036717,-0.037097801035120136,0.025252221844833597,0.14306943492957375,0.13567054626496386,0.1353734384438508,0,1,0
0.781563126252505,0.04247542563195429,-0.22324301134851723,1.003354871577734,-0.03233827294915201,0.02787330864685571,0.13105434010110592,0.13543519707882196,0.13513813564403176,0,1,0
0.8016032064128256,0.038116155632390326,-0.21796349997819825,1.0027959560738633,-0.027945775193537283,0.030254375444151917,0.11905333986481025,0.13521210597050495,0.13491698369281022,0,1,0
0.8216432865731462,0.033872671497741015,-0.21217420673246545,1.0023179439132284,-0.02390060803174126,0.03239721345601395,0.1071419005931019,0.13499924131427427,0.13470733366200408,0,1,0
0.8416833667334669,0.029754174536131765,-0.20592484808046246,1.0019142202500595,-0.020186183158446357,0.03430462794165012,0.09537072428180844,0.13479229710521648,0.1345051966845266,0,1,0
0.8617234468937875,0.025768883175800263,-0.19926456801657522,1.001578385380566,-0.01679174347467122,0.03598069104779722,0.08380315530735469,0.13459232726201545,0.13431100917610916,0,1,0
0.8817635270541082,0.02192405196868603,-0.19224156035571163,1.0013042822117058,-0.013705158443011487,0.03743024678337542,0.07247778677891098,0.13439043792091657,0.13411658755945152,0,1,0
0.9018036072144289,0.0182259854942096,-0.18490332372382146,1.0010857478212576,-0.01092671952240908,0.03865947876691473,0.06146159917696475,0.1341948892251014,0.13392906743270164,0,1,0
0.9218436873747494,0.014680071419387384,-0.17729570374111087,1.0009168451537938,-0.00844513337319044,0.039675009651183826,0.05077654421345477,0.13400161479948383,0.13374493851902136,0,1,0
0.9418837675350701,0.011290806683187911,-0.1694632368099736,1.0007917534028874,-0.0062545875453145095,0.04048434594015997,0.040466814448807176,0.1338191430169783,0.13357158224818905,0,1,0
0.9619238476953907,0.0080618382911854,-0.1614484196001255,1.0007050053941324,-0.004337400437753608,0.041094960008942895,0.030530703439146566,0.13363717173596695,0.13340018387680447,0,1,0
0.9819639278557114,0.004995987011535676,-0.1532925639824862,1.0006512054106789,-0.0026899991726763183,0.041515480420514755,0.021026020578592666,0.13346345054374825,0.13323700503380204,0,1,0
1.002004008016032,0.002095289780899135,-0.14503486153182707,1.0006252370803463,-0.0012984165166307488,0.041754500950328975,0.011951026490711484,0.13329807022455056,0.13308301031152245,0,1,0
1.0220440881763526,-0.0006389612491585089,-0.1367125515028822,1.0006222785368433,-0.00014792717515836194,0.041821280052983245,0.003338955132713435,0.09163682805565407,0.0926896811567415,0,1,0
1.0420841683366733,-0.0032567373114256444,-0.13088880311335677,0.9994277056704668,-0.05972864331882427,0.042730288032970534,0.045450398999364455,0.10271140322346499,0.10330578655109703,0,1,0
1.062124248496994,-0.0057445120552002335,-0.12438873718872943,0.9973636637629455,-0.10320209537606692,0.04411404222042169,0.06918770937255718,0.11390616972113451,0.1140790265919916,0,1,0
1.0821643286573146,-0.008085694775977526,-0.11705913603886459,0.9947560154015553,-0.1303824180695053,0.045634898177816095,0.07604279786972101,0.12256509088194775,0.12244380848824554,0,1,0
1.1022044088176353,-0.01026460484981934,-0.10894550369209065,0.9918570488892469,-0.14494832561542562,0.04705741912760897,0.07112604748964403,0.12899302504439952,0.12867805664565454,0,1,0
1.122244488977956,-0.012267311830233473,-0.10013534902070664,0.9888541972259042,-0.15014258316713264,0.048226746653982897,0.05846637631869617,0.13356889680936768,0.13313516631918282,0,1,0
1.1422845691382766,-0.014082264189756239,-0.09074761797613828,0.9858809787612102,-0.14866092323470154,0.04904809987035593,0.0410676608186519,0.13668311190585666,0.1361852599871003,0,1,0
1.1623246492985972,-0.015700630909391236,-0.0809183359817498,0.9830283474018378,-0.14263156796862222,0.04947048761866639,0.02111938741552255,0.13865160956787703,0.13812916892216845,0,1,0
1.1823647294589177,-0.01711645167899993,-0.07079103848043469,0.9803538970815749,-0.13372251601314283,0.04947457784104634,0.00020451111899814217,0.13974092612724703,0.13922151402485344,0,1,0
1.2024048096192383,-0.018326601310576094,-0.0605074815788081,0.9778896308365873,-0.12321331224938203,0.049063135108667826,-0.020572136618925055,0.14021424894937726,0.1397157339517955,0,1,0
1.222444889779559,-0.01933055706375189,-0.05019778765878987,0.9756496429988826,-0.11199939188523743,0.048253216337563666,-0.04049593855520775,0.14024089423324126,0.1397764196765696,0,1,0
1.2424849699398797,-0.020130158986344127,-0.03998009612961176,0.9736350797402674,-0.10072816293075867,0.04707239221673283,-0.05904120604154182,0.1399381205915543,0.1395153996412907,0,1,0
1.2625250501002003,-0.020729358585962546,-0.02995997998092092,0.971837536084742,-0.08987718277627199,0.045554392004557236,-0.07590001060878046,0.13944069760086736,0.13906424510207258,0,1,0
1.282565130260521,-0.021133884479517938,-0.02022629467776954,0.9702429954821828,-0.0797270301279589,0.04373653671345952,-0.09089276455488479,0.13883291406415868,0.1385048164094567,0,1,0
1.3026052104208417,-0.021350955208116126,-0.01085353642990951,0.9688342800916735,-0.07043576952546624,0.04165779020040419,-0.10393732565276712,0.13817825858816105,0.13789887203826418,0,1,0
1.3226452905811623,-0.021389013113672726,-0.0019028952778299569,0.967592892298568,-0.06206938965527112,0.03935737077499585,-0.11502097127041638,0.13752398575937938,0.13729242852129417,0,1,0
1.342685370741483,-0.021257484109529136,0.006576450207179552,0.9665003814267985,-0.054625543588478404,0.03687375806194874,-0.12418063565235607,0.13689498897206068,0.13670964028411636,0,1,0
1.3627254509018036,-0.020966576058430633,0.014545402554925178,0.9655390556066625,-0.048066291006799135,0.03424410047926771,-0.13148287913405116,0.13631398117223756,0.13617258091953796,0,1,0
1.3827655310621243,-0.020527092764593698,0.02197416469184681,0.964692631344522,-0.042321213107029174,0.03150370341551853,-0.1370198531874589,0.13579063304272804,0.13569064326292157,0,1,0
1.4028056112224447,-0.019950276856482246,0.028840795405572647,0.963946503392667,-0.03730639759275201,0.02868580753692231,-0.14089479392981105,0.1353303768925822,0.1352689864277527,0,1,0
1.4228456913827654,-0.019247670501123942,0.03513031776791516,0.9632878907379802,-0.032930632734338564,0.02582137141958434,-0.14322180586689853,0.13493173166281192,0.13490601450825807,0,1,0
1.442885771543086,-0.018430994746194012,0.0408337877464966,0.9627057819341925,-0.02910544018938007,0.022938981411613,-0.14411950039856733,0.13459160385635224,0.1345986498355879,0,1,0
1.4629258517034067,-0.01751204081005378,0.0459476968070115,0.9621908365143604,-0.025747270991605373,0.02006486640244827,-0.14370575045823625,0.1343046530743839,0.13434145839275355,0,1,0
1.4829659318637274,-0.016502572939809602,0.050473393512209,0.9617352200699413,-0.02278082222095585,0.017222825239798695,-0.14210205813247861,0.13406712554785696,0.13413067338423476,0,1,0
1.503006012024048,-0.015414238965398964,0.05441669872053191,0.9613324892315089,-0.02013654192161677,0.014434218861726994,-0.13943031890358526,0.13386719924604745,0.13395477790514068,0,1,0
1.5230460921843687,-0.014258493983115305,0.05778724911418294,0.9609772438154016,-0.017762270805364466,0.011718217076580962,-0.13580008925730155,0.14553407480029434,0.146743366955451,0,1,0
1.5430861723446894,-0.013041230974147002,0.06086315044841514,0.9610318848845175,0.0027320534557977068,0.009972113315345718,-0.08730518806176236,0.14171713045687337,0.14235022381670914,0,1,0
1.56312625250501,-0.011775687226787374,0.06327718736798142,0.9613745958874278,0.01713555014551215,0.00873400230799827,-0.06190555036737229,0.13861193554490198,0.13897492570307773,0,1,0
1.5831663326653307,-0.010470213667280782,0.06527367797532958,0.9619092082194719,0.02673061660220765,0.007787335010154775,-0.04733336489217488,0.13623680121531684,0.13642050489598154,0,1,0
1.6032064128256511,-0.00913057875529385,0.06698174559934658,0.9625625761263786,0.032668395345339336,0.0069884237719698835,-0.0399455619092446,0.13442961565445857,0.13449767530649975,0,1,0
1.6232464929859718,-0.0077610701485795325,0.06847543033571588,0.9632793695974092,0.03583967355152746,0.006244624897384458,-0.03718994372927131,0.13307862549858807,0.13307533636473626,0,1,0
1.6432865731462925,-0.00636518654351547,0.06979418025320314,0.9640184706871514,0.0369550544871083,0.005498811885001913,-0.03729065061912708,0.1320910261313583,0.13204703258517975,0,1,0
1.6633266533066131,-0.004946071800969942,0.07095573712727637,0.9647500139284246,0.03657716206366289,0.004718422945342909,-0.03901944698295025,0.13139670578221313,0.13133291320496346,0,1,0
1.6833667334669338,-0.0035067801127104713,0.07196458441297353,0.9654531570230066,0.03515715472909891,0.0038876486308373343,-0.041538715725278674,0.13093340280110882,0.13086390170227047,0,1,0
1.7034068136272544,-0.0020504318453555604,0.07281741336774554,0.9661141279605522,0.03304854687728146,0.0030019656833231746,-0.04428414737570798,0.13064753481604763,0.130581632211736,0,1,0
1.723446893787575,-0.0005802964211142282,0.07350677121206661,0.9667245603252188,0.03052161823333322,0.0020643005967510304,-0.046883254328607224,0.13049944473783642,0.13044299686573607,0,1,0
1.7434869739478958,0.0009001743099168345,0.07402353655155314,0.9672802620065283,0.027785084065474086,0.0010822625330348514,-0.04910190318580896,0.13045501915442226,0.1304114897729848,0,1,0
1.7635270541082164,0.00238734489419098,0.07435852921370727,0.967780164763419,0.024995137844537774,6.622518734345977e-05,-0.05080186728456958,0.13048646109662812,0.13045764047644676,0,1,0
1.783567134268537,0.003877416262044421,0.07450356839267205,0.9682254725031862,0.02226538698836079,-0.0009720145194590455,-0.05191198534012527,0.1305712956847643,0.13055781413103126,0,1,0
1.8036072144288577,0.005366459076546171,0.07445214072508746,0.968618975691464,0.01967515941388934,-0.002020165754021615,-0.05240756172812848,0.1306915481775753,0.130693242638691,0,1,0
1.8236472945891782,0.006850454925629577,0.07419979245417033,0.968964505276904,0.017276479271997918,-0.003066078954627855,-0.052295660030312,0.13083303051105877,0.13084920592351998,0,1,0
1.8436873747494988,0.008325341411527777,0.07374432429490999,0.9692665033418845,0.015099903249019352,-0.004098171344425404,-0.051604619489877435,0.13098262394466637,0.13101239573395063,0,1,0
1.8637274549098195,0.009787058487517764,0.0730858537994993,0.9695296310769548,0.013156386753517917,-0.005105578033000483,-0.05037033442875391,0.13113548891578114,0.13117752823255785,0,1,0
1.8837675350701402,0.011231593415502915,0.07222674639925758,0.9697586188167443,0.011449386989474532,-0.006078506765158529,-0.048646436607902355,0.1312859097594783,0.13133867429981907,0,1,0
1.9038076152304608,0.012655023843429735,0.07117152139634103,0.9699580938389243,0.009973751108998063,-0.0070084076784423955,-0.04649504566419332,0.13141601972048156,0.13147885671670967,0,1,0
1.9238476953907815,0.014053559637909996,0.06992678972401302,0.9701320647710776,0.008698546607666334,-0.007887260507136647,-0.04394264143471254,0.1315503609842622,0.13162080304432977,0,1,0
1.9438877755511021,0.01542357338383547,0.06850068729627366,0.9702846230283867,0.00762791286545275,-0.00870902573200177,-0.04108826124325611,0.1316695697661553,0.13174636356193173,0,1,0
1.9639278557114228,0.01676163619135923,0.06690314037618805,0.970419387715523,0.006738234356817679,-0.009468671516901239,-0.03798228924497345,0.1317739998594504,0.13185588530780862,0,1,0
1.9839679358717435,0.01806454278571586,0.06514532971783153,0.9705395171554837,0.006006471998032423,-0.010162178162932729,-0.034675332301574505,0.13186369409767884,0.13194946302195726,0,1,0
2.004008016032064,0.019329332600473276,0.06323949073787084,0.9706477120716946,0.0054097458105473485,-0.01078649564267903,-0.03121587398731502,0.1319359695106606,0.13202475783493467,0,1,0
2.024048096192385,0.02055330755055731,0.0611987475042017,0.9707461423140606,0.004921512118300215,-0.011339267431984058,-0.027638589465251478,0.1657493369195802,0.16421968427387626,0,1,0
2.0440881763527052,0.021723515196857644,0.05851038231501667,0.971812634543278,0.053324611460871724,-0.013115306711206693,-0.08880196396113157,0.15220528273982797,0.15161196970416713,0,1,0
2.064128256513026,0.022841675658775814,0.05590802309590857,0.973458913005116,0.08231392309189532,-0.015364448666349974,-0.11245709775716389,0.14521037295450426,0.14502876767972095,0,1,0
2.0841683366733466,0.023902460489940828,0.05303924155825068,0.975483212708989,0.10121498519364837,-0.01775687281474906,-0.11962120741995438,0.13965195526564506,0.13974012684945064,0,1,0
2.1042084168336674,0.024898706588526675,0.04981230492929238,0.9777243613306906,0.11205743108508222,-0.020076617010967312,-0.11598720981091247,0.13548863032282743,0.13574559594817232,0,1,0
