time,x,x_dot,z,z_dot,theta,theta_dot,u1,u2,x_ref,z_ref,theta_ref
0.0,-0.32410088223255085,-0.008300888779329413,1.4350068508498128,0.08936513914937844,-0.16128587452480628,-0.09982159568371891,0.05632337491551611,0.056362497178915685,0,1,0
0.02004008016032064,-0.3245348433538721,-0.021698056066063297,1.4345203494011052,-0.024325072435384967,-0.16324925256255504,-0.09816890188744211,0.05632337490513373,0.07456163874860841,0,1,0
0.04008016032064128,-0.3252798311825199,-0.03724939143239031,1.4320281214957395,-0.12461139526828653,-0.15062032326952965,0.631446464651271,0.05632337499469838,0.0662155205613721,0,1,0
0.06012024048096192,-0.32631919213863597,-0.051968047805802234,1.4274094010377332,-0.23093602290032386,-0.13009479177731226,1.0262765746108684,0.056323374907434685,0.06300259741410794,0,1,0
0.08016032064128256,-0.3276227845852847,-0.06517962233243703,1.420623027778563,-0.33931866295850766,-0.10426028065441469,1.2917255561448806,0.056323374904887286,0.059979565080337104,0,1,0
0.1002004008016032,-0.3291484962436331,-0.07628558291741964,1.4116324059267944,-0.44953109258842455,-0.07554915843019162,1.435556111211152,0.05632339068817928,0.0577014258291673,0,1,0
0.12024048096192384,-0.33084823425773086,-0.08498690070488615,1.4004123396204633,-0.5610033153165546,-0.04579200448154765,1.4878576974321984,0.05632337490951239,0.05651932719622931,0,1,0
0.1402805611222445,-0.332672019652544,-0.09118926974065675,1.386953317544748,-0.6729511037857654,-0.015937383868541183,1.4927310306503232,0.05632373414822467,0.056323374917526564,0,1,0
0.16032064128256512,-0.33456974829292135,-0.09488643201886716,1.371259471385863,-0.7846923079442478,0.013857414365998823,1.489739911727,0.0578310310461079,0.05632337490491412,0,1,0
0.18036072144288576,-0.3364917105522946,-0.09609811296866291,1.3533590655608128,-0.8950202912525107,0.042387278485434346,1.4264932059717759,0.05883801643767567,0.056323374908289314,0,1,0
0.2004008016032064,-0.3383871098716293,-0.09476996596673429,1.3332718015978948,-1.004363198145892,0.06885086654553141,1.3231794030048538,0.05924998292106409,0.056323374904883046,0,1,0
0.22044088176352705,-0.3402069094926076,-0.09098998104891688,1.311007479060471,-1.1132161268711842,0.0929248047605946,1.2036969107531597,0.05975950487696188,0.056323374964706276,0,1,0
0.24048096192384769,-0.3419053147041119,-0.08492026057521362,1.2865765339136142,-1.2215472573428472,0.11420819471794771,1.0641694978676557,0.0863879494007796,0.08263810595135673,0,1,0
0.2605210420841683,-0.34336834013145345,-0.073151271367077,1.2607623520420956,-1.2907090935759213,0.13245724331707767,0.912452429956498,0.14549657270048214,0.14151470118115517,0,1,0
0.280561122244489,-0.34434412164284167,-0.04878907556941181,1.235299837541233,-1.2731257250431351,0.14749340476630396,0.7518080724613152,0.1864937769556751,0.18207040925930748,0,1,0
0.3006012024048096,-0.3445969966021303,-0.012643747964431205,1.2113760263518047,-1.196190559471413,0.15897019970103723,0.573839746736662,0.21175647316579935,0.2071895845260836,0,1,0
0.32064128256513025,-0.3439373089698426,0.03298438161438513,1.1897134697759582,-1.0831278287923312,0.1667792742272762,0.3904537263119484,0.22238741701155537,0.21796338342739507,0,1,0
0.3406813627254509,-0.3422460071751214,0.08456508973606093,1.170608479496782,-0.9552495139588104,0.1710405432743515,0.21306345235376714,0.22273894507055436,0.21864841103629287,0,1,0
0.3607214428857715,-0.33947182308340285,0.13870920458592595,1.154061769671986,-0.8273354912397993,0.17202527945331575,0.04923680894821317,0.21684627650531996,0.21319908526679332,0,1,0
0.3807615230460922,-0.3356173189952719,0.1927252044065464,1.1398974791820773,-0.7082145244954325,0.17009143747900055,-0.09669209871575862,0.20690142932076172,0.20374768541531568,0,1,0
0.4008016032064128,-0.3307267672736046,0.24452758608336647,1.1278267329968141,-0.6035373092631546,0.16563630176133884,-0.22275678588308898,0.1956815693547328,0.1930130741525277,0,1,0
0.42084168336673344,-0.32486793053620666,0.2929418368698964,1.1175272725226248,-0.5149730237094626,0.15905074910569236,-0.3292776327823244,0.18387586078207777,0.18168697417757992,0,1,0
0.4408817635270541,-0.3181236098611496,0.33721603375285225,1.1086625571205284,-0.44323577010482207,0.15072112836079998,-0.41648103724461755,0.1729919644281527,0.171239466739972,0,1,0
0.4609218436873747,-0.310579989967495,0.37718099468273375,1.1009242396644585,-0.38691587280349066,0.1409989971018626,-0.48610656294687243,0.1633970733231036,0.16203434612270026,0,1,0
0.48096192384769537,-0.3023217563427133,0.41291168123908334,1.0940420064049126,-0.34411166297729784,0.1301982941022948,-0.540035149978387,0.15532078762886564,0.15430153703413846,0,1,0
0.501002004008016,-0.29342905921414314,0.44463485642850864,1.0877897147997158,-0.31261458025984307,0.1185955449563434,-0.5801374572975705,0.1487807186020413,0.14805819901611153,0,1,0
0.5210420841683366,-0.28397639750261805,0.4726330855762545,1.081985536622694,-0.29020890885108364,0.10642948619903966,-0.6083029378651859,0.14381002670909876,0.14334047401024858,0,1,0
0.5410821643286573,-0.2740321587428161,0.4972119379900957,1.0764927769961374,-0.2746379813278306,0.09390346644835501,-0.6263009875342304,0.1402373859397871,0.13998242813050552,0,1,0
0.561122244488978,-0.26365939597378846,0.5186381384513838,1.0712148224403326,-0.2638977277902433,0.0811897933135755,-0.6356836567389772,0.13785351738604154,0.13778102110387544,0,1,0
0.5811623246492986,-0.2529168711509377,0.5371262411425378,1.066089031427727,-0.2562895506302835,0.06843476427776571,-0.6377514517904908,0.1364535693130907,0.13653530799422192,0,1,0
0.6012024048096192,-0.24186006136427937,0.5528404893329155,1.0610807389674088,-0.25041462301590317,0.055761832521164824,-0.633646587830044,0.13583558402018728,0.13604766393033166,0,1,0
0.6212424849699398,-0.2305420321411593,0.565901461156004,1.0561773564922783,-0.2451691237565334,0.0432751135415844,-0.6243359489790222,0.13579861494933151,0.1361209441026023,0,1,0
0.6412825651302605,-0.21901412476312218,0.5763953689018556,1.051382492520666,-0.23974319858061335,0.031062463882951558,-0.6106324829316415,0.13618569128714192,0.1366002309131751,0,1,0
0.6613226452905812,-0.20732636493438725,0.584387991436747,1.0467113484521806,-0.23355720342427702,0.01919715726605815,-0.5932653308446703,0.13683419000517863,0.13732708917123224,0,1,0
0.6813627254509018,-0.19552769517026672,0.5899334882060265,1.0421859823007353,-0.2262683075722665,0.007741265890110863,-0.5727945687973645,0.13765572948775331,0.13821285297532904,0,1,0
0.7014028056112224,-0.18366597536835308,0.593085990095682,1.0378327127830502,-0.21766347588425158,-0.003254541730974475,-0.5497903810542669,0.13853740910777282,0.13914801519374337,0,1,0
0.721442885771543,-0.17178789385611443,0.5939040756119331,1.0336788609516896,-0.20769259156803058,-0.013748261056595955,-0.5246859662810737,0.13938256159029316,0.14003733876997448,0,1,0
0.7414829659318637,-0.1599387658279758,0.5924564014069308,1.0297499551500162,-0.1964452900836703,-0.02370538777836135,-0.4978563360882697,0.14018312583495407,0.1408724527096679,0,1,0
0.7615230460921844,-0.14816227687077954,0.5888244478598135,1.0260695471816126,-0.1840203984201845,-0.033099148861269176,-0.4696880541453916,0.14081945197825205,0.14153657326015773,0,1,0
0.781563126252505,-0.13650017271804515,0.58310520763672,1.0226557768806521,-0.17068851504802804,-0.04190819351225645,-0.44045223254936355,0.14136258686222236,0.14210081580094744,0,1,0
0.8016032064128256,-0.12499203982275015,0.5754066447647501,1.019523554552049,-0.15661111643016523,-0.0501165267203251,-0.41041666040343316,0.14175902834639947,0.1425096599669098,0,1,0
0.8216432865731462,-0.11367504363427314,0.5658498094238502,1.016683022586418,-0.14202659828153824,-0.057715113126193124,-0.3799293202934007,0.14201658375554466,0.14277804864124427,0,1,0
0.8416833667334669,-0.10258374505610067,0.5545649289086231,1.0141399710457204,-0.12715257703487828,-0.06469615680020574,-0.3490521837006298,0.14212122224829246,0.14288283223177906,0,1,0
0.8617234468937875,-0.09174992211101343,0.541691147254362,1.011895363409049,-0.11223038183356325,-0.07106039310058292,-0.3182118150188583,0.14213047807601564,0.14289083463510838,0,1,0
0.8817635270541082,-0.08120255224609572,0.5273684932458853,1.0099472489593242,-0.09740572248623902,-0.07680964494344839,-0.2874625921432746,0.1419245235248474,0.1426803446389696,0,1,0
0.9018036072144289,-0.07096751012805406,0.5117521059020828,1.0082872562546537,-0.08299963523352819,-0.0819483283309098,-0.2569341693730703,0.14174978593544255,0.1424952026661205,0,1,0
0.9218436873747494,-0.06106803133875856,0.4949739394647753,1.0069079010299329,-0.06896776123603937,-0.08648551901794845,-0.2268595343519317,0.14136732883368563,0.14210240391342568,0,1,0
0.9418837675350701,-0.051524191163997916,0.47719200873803214,1.0057956591434571,-0.05561209432378333,-0.09043020249769274,-0.19723417398721557,0.1409602895883083,0.1416797946913218,0,1,0
0.9619238476953907,-0.042353340232591956,0.4585425465702981,1.0049363449724318,-0.042965708551264914,-0.09379550820556258,-0.16826528539349167,0.14033648613246505,0.14103147887240794,0,1,0
0.9819639278557114,-0.03356964189722661,0.4391849167682673,1.0043094169100117,-0.03134640312099803,-0.09660167761407447,-0.14030847042559483,0.13969872871257336,0.14036826672798025,0,1,0
1.002004008016032,-0.02518466488642613,0.4192488505400239,1.0038941140355864,-0.02076514372126729,-0.09886965880025399,-0.11339905930897598,0.13897538194092918,0.13961789327546306,0,1,0
1.0220440881763526,-0.017207296651713812,0.39886841173561594,1.003667347839708,-0.011338309793920536,-0.10062161210631984,-0.08759766530329118,0.09382679815493677,0.09216494753004452,0,1,0
1.0420841683366733,-0.00951084199852988,0.3848227326591966,1.0022628122137103,-0.07022678129988925,-0.10370151953575965,-0.15399537147199127,0.09842307674414418,0.09771955548728815,0,1,0
1.062124248496994,-0.002114847884192958,0.36979970571684606,0.9998309586617685,-0.12159267759708639,-0.10734139794222225,-0.18199392032313066,0.11319673362864927,0.11315408915761294,0,1,0
1.0821643286573146,0.004925802080167586,0.3520324982180272,0.9968171386525717,-0.15069100045983858,-0.11101194984827961,-0.18352759530286814,0.12445989059842304,0.12494595291032595,0,1,0
1.1022044088176353,0.011562807996889055,0.3318502958360734,0.9935602881277052,-0.1628425262433216,-0.11429017916479031,-0.16391146582553345,0.13282951826758752,0.13365902454628537,0,1,0
1.122244488977956,0.01775516845609038,0.3096180229600662,0.9903106828298465,-0.16248026489293724,-0.11690175456926746,-0.13057877022385955,0.1381794386970665,0.139211643379737,0,1,0
1.1422845691382766,0.023472189470647754,0.2858510507278687,0.9872272733088509,-0.1541704760497788,-0.1186852069702812,-0.08917262005068616,0.14153653084473553,0.14266250772552558,0,1,0
1.1623246492985972,0.02869207374849795,0.2609942138925098,0.9844087511186482,-0.14092610951013246,-0.11956632530923675,-0.04405591694777824,0.14319301531383802,0.14434175382620415,0,1,0
1.1823647294589177,0.03340215739159489,0.23550418215484717,0.9819029601383027,-0.12528954901727737,-0.11952771724560186,0.0019304031817450606,0.14355016333356813,0.14467620926703353,0,1,0
1.2024048096192383,0.0375981327782196,0.20979876933123534,0.9797192428900534,-0.10918586241246245,-0.11858830338193953,0.04697069318311722,0.14318821717413713,0.14425719793621988,0,1,0
1.222444889779559,0.04128216573790601,0.18420164798432043,0.9778457526107955,-0.09367451396289182,-0.1167944921169701,0.08969056324847077,0.14219381601637412,0.1431843288559613,0,1,0
1.2424849699398797,0.04446244621983792,0.1590140240965955,0.9762522017046891,-0.07967754530532074,-0.11420983561455429,0.1292328251207893,0.14087748634356623,0.1417756363567949,0,1,0
1.2625250501002003,0.04715176958077414,0.1344661680468109,0.9748990780723696,-0.06765618161596969,-0.11090899644469164,0.1650419584931357,0.13938911085499298,0.14018821629583633,0,1,0
1.282565130260521,0.04936660119139252,0.11074158053091915,0.9737421024154606,-0.057848782845452695,-0.1069719528976611,0.19685217735152766,0.13792627252242395,0.13862738068039443,0,1,0
1.3026052104208417,0.051125966306890036,0.08796825577487581,0.9727380861994152,-0.05020081080226824,-0.10247779681843558,0.22470780396127377,0.13656658748906472,0.1371679232242116,0,1,0
1.3226452905811623,0.05245080208969033,0.06624178914001458,0.9718471002054804,-0.04454929969673961,-0.09750698023158066,0.24854082934274527,0.1353544223451549,0.1358588505361654,0,1,0
1.342685370741483,0.053363460536773835,0.045632922354175244,0.9710337789928166,-0.04066606063318748,-0.09213759109133723,0.26846945701217223,0.13434873365322655,0.13475966528706532,0,1,0
1.3627254509018036,0.053887219973927085,0.026187971857662577,0.9702690018844495,-0.03823885541835483,-0.08644491010771077,0.2846340491813235,0.13354936800558068,0.1338714378453169,0,1,0
1.3827655310621243,0.054046027480550325,0.007940375331161927,0.9695298500819446,-0.036957590125247554,-0.080500427836489,0.29722411356108724,0.13295115282379938,0.13318951778842253,0,1,0
1.4028056112224447,0.05386429034594459,-0.009086856730286978,0.9687994140572359,-0.0365218012354326,-0.07437142602324542,0.30645009066217893,0.13255431568818973,0.13271447030429642,0,1,0
1.4228456913827654,0.0533666863763757,-0.024880198478444335,0.9680667656607264,-0.036632419825478,-0.06812070871140717,0.31253586559191193,0.13232453598361626,0.13241171931944165,0,1,0
1.442885771543086,0.05257808081915093,-0.039430277861238615,0.9673259063772662,-0.037042964173006364,-0.06180680952583583,0.3156949592785677,0.13222268782940624,0.1322431353037723,0,1,0
1.4629258517034067,0.051523448882681594,-0.052731596823466474,0.9665745969231125,-0.03756547270768653,-0.05548319841894554,0.31618055534451417,0.13226089728249482,0.13221897649360903,0,1,0
1.4829659318637274,0.05022769673476085,-0.06478760739603713,0.9658146662041746,-0.03799653594689762,-0.04919978168366767,0.31417083676389423,0.13239719073999992,0.13229872833949727,0,1,0
1.503006012024048,0.04871559767633858,-0.07560495292111358,0.9650507758403262,-0.03819451819241687,-0.04300173930010191,0.30990211917828764,0.13259725793216018,0.13244658962584357,0,1,0
1.5230460921843687,0.04701170203374855,-0.08519478212950157,0.9642893724602293,-0.038070169004843224,-0.03693072430932096,0.30355074953904765,0.1508492874825541,0.14781997474716432,0,1,0
1.5430861723446894,0.04511908426211998,-0.09463088858142826,0.964029274489987,-0.013004898512115243,-0.03328944594693879,0.18206391811910816,0.14254134505662194,0.14094911527370518,0,1,0
1.56312625250501,0.04307305664342693,-0.10230138093465278,0.9640463994226348,0.00085624663239303,-0.03092538634534544,0.11820298007966762,0.13928871895004843,0.13841683803151963,0,1,0
1.5831663326653307,0.040891900609175066,-0.10905780171259304,0.9642553862362507,0.010449340680794176,-0.02926094432822254,0.08322210085614452,0.1367331429443933,0.13634147025702692,0,1,0
1.6032064128256511,0.0385875904187473,-0.11521550952138823,0.9645878029824817,0.016620837311548,-0.0279112823952326,0.06748309664949712,0.1347995781336919,0.13471751404622828,0,1,0
1.6232464929859718,0.0361685205015388,-0.1209534958604249,0.9649910594275223,0.020162822252029436,-0.026628424265432743,0.0641429064899929,0.13332336299792466,0.13343160233573662,0,1,0
1.6432865731462925,0.03364133416124422,-0.12635931701472908,0.9654243398676696,0.02166402200736577,-0.02526006685211489,0.06841787066589285,0.1322133946482215,0.13242969780288552,0,1,0
1.6633266533066131,0.031012040678846452,-0.13146467411988846,0.9658564777246339,0.021606892848212704,-0.0237198366590533,0.07701150965307955,0.13140112389268535,0.13166892696283902,0,1,0
1.6833667334669338,0.028286694417968855,-0.13626731304387993,0.9662643145778541,0.020391842661011718,-0.021966691340480085,0.08765726592866094,0.13083610284716715,0.1311173265230068,0,1,0
1.7034068136272544,0.025471785732761938,-0.14074543426034578,0.966631480077949,0.018358275004743914,-0.019990092883934614,0.09882992282727335,0.13049133170712615,0.1307613406606801,0,1,0
1.723446893787575,0.022574435344117627,-0.14486751943221554,0.9669477863473529,0.01581531347019724,-0.01779922524289429,0.10954338205201652,0.1303167420861867,0.1305584870346429,0,1,0
1.7434869739478958,0.019602487686714857,-0.14859738287013846,0.9672078487328051,0.013003119272609467,-0.015416906797339655,0.11911592227773136,0.13026444342012408,0.13046905547870066,0,1,0
1.7635270541082164,0.016564522469954945,-0.1518982608379956,0.9674097786743057,0.010096497075029829,-0.01287303204178481,0.12719373777774245,0.13035995369799117,0.13052210311056536,0,1,0
1.783567134268537,0.013469774868019643,-0.15473738009676505,0.9675559825397106,0.007310193270251516,-0.010201732127601306,0.13356499570917518,0.13054602981834726,0.13066326103361092,0,1,0
1.8036072144288577,0.010328072327653356,-0.15708512701831429,0.9676514979604345,0.004775771036193423,-0.007439070049430592,0.13813310390853567,0.13078438311301865,0.1308567096730406,0,1,0
1.8236472945891782,0.007149735239130935,-0.15891685442612108,0.9677028875927991,0.0025694816182332257,-0.00462106236572609,0.1409003841852251,0.13108629871470243,0.13111696449316976,0,1,0
1.8436873747494988,0.003945448198660335,-0.16021435202352996,0.9677186148845669,0.0007863645883917695,-0.0017810942094381816,0.14199840781439532,0.13139345172903175,0.1313829888617903,0,1,0
1.8637274549098195,0.0007261456316836525,-0.16096512834883414,0.9677072703179936,-0.0005672283286603322,0.0010479090955792844,0.14145016525087328,0.13170734007807494,0.13165895988654416,0,1,0
1.8837675350701402,-0.0024971162668726015,-0.1611630949278127,0.9676776530616754,-0.0014808628159097086,0.0038356250692775295,0.13938579868491224,0.1320104342168521,0.13192788066852257,0,1,0
1.9038076152304608,-0.00571328643122122,-0.16080850821743092,0.967638258428531,-0.0019697316572223206,0.0065547574337971775,0.13595661822598235,0.13229046877746495,0.1321775090228358,0,1,0
1.9238476953907815,-0.008911441767063362,-0.1599077667921071,0.9675969156738905,-0.0020671377320263685,0.009181051275619611,0.1313146920911216,0.1325539902281728,0.13241522633269068,0,1,0
1.9438877755511021,-0.012080899098024674,-0.15847286654806564,0.967560996829392,-0.0017959422249221588,0.011693957452107204,0.12564530882437966,0.13277836034856977,0.13261613370455227,0,1,0
1.9639278557114228,-0.015211321741549875,-0.15652113217626004,0.9675367158496175,-0.0012140489887218823,0.014074819810356794,0.11904311791247944,0.13294920597198073,0.13276811350295892,0,1,0
1.9839679358717435,-0.018292815220668383,-0.1540746739559255,0.9675287410601563,-0.00039873947305934946,0.01630867717393659,0.11169286817899,0.1330887897716261,0.13289258636186163,0,1,0
2.004008016032064,-0.021316004178374152,-0.1511594478852884,0.9675408481674203,0.0006053553631971329,0.01838358551074072,0.10374541684020648,0.13319951541235756,0.13299035945613819,0,1,0
2.024048096192385,-0.024272097701877927,-0.14780467617518878,0.9675759733989752,0.0017562615777467587,0.020289337306343545,0.09528758978014086,0.1648016627089174,0.1668401354983157,0,1,0
2.0440881763527052,-0.027135159424088964,-0.14315308611055183,0.9686034480001483,0.05137373005865789,0.02382419449506692,0.17674285943616888,0.1494721801350934,0.150218309391616,0,1,0
2.064128256513026,-0.02990550671866612,-0.1385173647288579,0.9701489208903319,0.07727364450917744,0.027952623665503606,0.20642145852183413,0.14463633511421095,0.1448151152023588,0,1,0
2.0841683366733466,-0.03257113368038311,-0.13328134808584954,0.9720599140217799,0.09554965657240225,0.03222009118727042,0.21337337608834112,0.14048026347225417,0.14026505412351956,0,1,0
2.1042084168336674,-0.035118033295206665,-0.12734498074117762,0.9742066927537174,0.10733893659687099,0.03631125037265534,0.2045579592692458,0.13726490577558687,0.1368057619638924,0,1,0
2.124248496993988,-0.03753175524317095,-0.12068609739821434,0.976489666828093,0.11414870371878234,0.04003115515206422,0.18599523897044362,0.13478141295065613,0.1341810339599881,0,1,0
