time,x,x_dot,z,z_dot,theta,theta_dot,u1,u2,x_ref,z_ref,theta_ref
0.0,-0.2246002554288109,0.019154698005868,1.0138005450540102,0.0388983808014805,0.060998699901355986,0.07262336103518738,0.1300004039077875,0.12520698195400717,0,1,0
0.02004008016032064,-0.22398699728235677,0.03066290732270607,1.014431681680347,0.031556831316836925,0.058615183198845684,-0.11917583512551491,0.14766181228662975,0.15346883937850087,0,1,0
0.04008016032064128,-0.22310229296970527,0.04423521563257443,1.0155951888945625,0.05817536071078239,0.060879409032986574,0.11321129170704372,0.08721777910157674,0.09005378824680135,0,1,0
0.06012024048096192,-0.22206449842151332,0.05188972740959685,1.0154594324628312,-0.006787821586557871,0.06541041991817387,0.22655054425936483,0.10862192221431777,0.11021358893632108,0,1,0
0.08016032064128256,-0.22083032794873064,0.061708523639134684,1.0146397918174248,-0.04098203227031739,0.07121030509918662,0.2899942590506375,0.12061434639738823,0.12077168145342786,0,1,0
0.1002004008016032,-0.21936347121382874,0.07334283674509495,1.0134692972965385,-0.05852472604432151,0.07713007075328475,0.2959882827049069,0.1323774566773915,0.13162406323431775,0,1,0
0.12024048096192384,-0.2176196203809589,0.087192541643492,1.0122810483540328,-0.05941244712528132,0.082440994656146,0.2655461951430628,0.1399857593071526,0.1386641946961608,0,1,0
0.1402805611222445,-0.21555922312412823,0.10301986284153294,1.0112897245881312,-0.04956618829508382,0.086689304805043,0.21241550744485002,0.14427712961239447,0.1426478221760702,0,1,0
0.16032064128256512,-0.21315062421264383,0.12042994557422002,1.0106155876379452,-0.03370684750929169,0.08963006019365792,0.14703776943074495,0.14565196784674134,0.14392276132820223,0,1,0
0.18036072144288576,-0.21037276201016133,0.13889311012412486,1.0102959437863888,-0.01598219257782873,0.09118475782319684,0.07773488147694543,0.14498325795084688,0.14327608723462798,0,1,0
0.2004008016032064,-0.2072151791214199,0.15787914443707202,1.0103099580314303,0.0007007122520825346,0.09137238008884829,0.009381113282573572,0.1431135964737525,0.1415115863622379,0,1,0
0.22044088176352705,-0.2036765577443146,0.17693106885526522,1.0106031107271685,0.014657634786902608,0.09027824278195197,-0.054706865344814753,0.14042798818820432,0.13897235863280083,0,1,0
0.24048096192384769,-0.19976358147410128,0.19564881351066554,1.0110979845034433,0.024743688813745057,0.08802052572305047,-0.11288585294507673,0.13766743508250132,0.13638875089847277,0,1,0
0.2605210420841683,-0.19548831266724248,0.21376344034293968,1.0117159419842923,0.03089787404244105,0.08474187398910765,-0.16393258669714034,0.1348905306503601,0.13378638177782087,0,1,0
0.280561122244489,-0.1908672982334017,0.2310507216920388,1.0123782876846021,0.03311728501549662,0.08058296080838041,-0.2079456590363616,0.13244470797705443,0.1315155202066463,0,1,0
0.3006012024048096,-0.1859198550178144,0.24737216077936416,1.0130164690374255,0.031909067641168534,0.07568472283282628,-0.24491189877770694,0.1303797730977029,0.12961646150992848,0,1,0
0.32064128256513025,-0.18066730364021955,0.26262756887974376,1.0135733093007993,0.02784201316868516,0.07018072121229309,-0.275200081026659,0.12876788672659675,0.1281581522677482,0,1,0
0.3406813627254509,-0.17513225936414514,0.2767522138037207,1.0140050017207216,0.021584620996117822,0.06419455437571346,-0.2993083418289808,0.1276120090485441,0.12714236920063945,0,1,0
0.3607214428857715,-0.169338217897716,0.2897020733214567,1.0142811012235387,0.013804975140852195,0.05783890469352205,-0.3177824841095706,0.12689193617775413,0.12654845582284405,0,1,0
0.3807615230460922,-0.16330929200906924,0.3014462944323377,1.0143838545238402,0.00513766501507661,0.051215176568152214,-0.3311864062684918,0.1265577487928161,0.1263270861362184,0,1,0
0.4008016032064128,-0.15707007408508428,0.311960896199248,1.0143066780248875,-0.003858824947637573,0.044413976298819685,-0.3400600134666255,0.12654988006319853,0.12641920865506484,0,1,0
0.42084168336673344,-0.15064555005052138,0.3212262017281446,1.0140523587218973,-0.012715965149511748,0.037515532533779164,-0.3449221882520266,0.12679354595671483,0.12675166291008869,0,1,0
0.4408817635270541,-0.14406104384868346,0.3292253100918965,1.013630829438803,-0.021076464154715518,0.03059100542459682,-0.3462263554591166,0.12724439319258116,0.127280261113116,0,1,0
0.4609218436873747,-0.13734211505592306,0.3359464396380197,1.0130578310641498,-0.028649918732663586,0.02370262954845978,-0.344418793806852,0.12785114069628198,0.12795478656106776,0,1,0
0.48096192384769537,-0.1305144605348099,0.3413827260556587,1.0123533899967052,-0.0352220533722355,0.016904577086395894,-0.3399026231031948,0.12855018816705016,0.12871331941660755,0,1,0
0.501002004008016,-0.12360381307088832,0.34553237319607866,1.011539946538928,-0.04067217288885896,0.01024431359093984,-0.3330131747728024,0.12930722987190957,0.1295218878119046,0,1,0
0.5210420841683366,-0.11663579998926707,0.34840065408106236,1.0106413378221264,-0.04493043584008717,0.0037628752137105954,-0.32407191886146225,0.13007638002906124,0.13033582533158883,0,1,0
0.5410821643286573,-0.10963579808313162,0.3500000953067728,1.0096814566882293,-0.0479940566948509,-0.0025041457688150227,-0.3133510491262809,0.13081972840585512,0.13111817161477024,0,1,0
0.561122244488978,-0.10262877248687875,0.35035127981264313,1.0086831487500547,-0.04991539690872879,-0.008525832234083193,-0.30108432326340856,0.13154790238288314,0.1318782838726202,0,1,0
0.5811623246492986,-0.09563910897400396,0.34948317564373954,1.0076685200211408,-0.05073143644569384,-0.014276950522146331,-0.287555914403157,0.13221608946311322,0.13257394418162174,0,1,0
0.6012024048096192,-0.08869045674976346,0.34743261121202473,1.006657662384688,-0.05054288182264298,-0.019735865860898788,-0.2729457669376226,0.13283467416790373,0.13321608020007092,0,1,0
0.6212424849699398,-0.08180558571149898,0.34424355191322364,1.0056689883200203,-0.049433703233383204,-0.024884101797815104,-0.2574117968458162,0.1333205779286504,0.1337210942309878,0,1,0
0.6412825651302605,-0.07500621150717263,0.3399687102163176,1.0047167827358328,-0.04761027920937384,-0.029706750177054958,-0.24113241896199253,0.13374388502131884,0.13415964418082915,0,1,0
0.6613226452905812,-0.06831289745129045,0.33466570279410873,1.0038133128352005,-0.045173495031615,-0.034192006660467344,-0.224262824170619,0.13414743719055502,0.13457276521229056,0,1,0
0.6813627254509018,-0.06174499268418026,0.3283952383555092,1.002970093341181,-0.04216097470098295,-0.03833261124298706,-0.20703022912598584,0.1344097153066896,0.13484184024055598,0,1,0
0.7014028056112224,-0.05532044422765538,0.32122742282624406,1.0021943522244123,-0.038787055838430666,-0.04212352057402521,-0.1895454665519068,0.13464880023229447,0.1350827287761558,0,1,0
0.721442885771543,-0.0490558388671756,0.31323026802398873,1.0014925196553763,-0.03509162845180346,-0.04556368199723862,-0.17200807116067054,0.13483879498733128,0.13527302143435313,0,1,0
0.7414829659318637,-0.04296633883900835,0.3044750014083625,1.0008695323336294,-0.03114936608734204,-0.048653238800919055,-0.1544778401840223,0.13493901855125867,0.13537071247493598,0,1,0
0.7615230460921844,-0.03706560210764353,0.2950368365682409,1.0003276284066085,-0.02709519635104757,-0.05139458865409724,-0.13706749265890925,0.13501702187681586,0.13544485688906155,0,1,0
0.781563126252505,-0.031365853544844675,0.28498742813994266,0.9998683876560155,-0.02296203752965044,-0.05379117810376245,-0.11982947248326019,0.13498602023881687,0.13540580061653112,0,1,0
0.8016032064128256,-0.025877754542920614,0.2744049500962031,0.9994901347835901,-0.018912643621273754,-0.055849797198531566,-0.10293095473845613,0.1348887053681339,0.13529899667148557,0,1,0
0.8216432865731462,-0.02061046412080647,0.26336452110570713,0.9991892589084335,-0.015043793757829993,-0.05757836753439227,-0.08642851679303468,0.13482312154621687,0.13522438295732858,0,1,0
0.8416833667334669,-0.015571821468022695,0.2519321326391888,0.9989631531241436,-0.011305289214490857,-0.05898442684649257,-0.07030296560501495,0.13464137507600185,0.1350286828514552,0,1,0
0.8617234468937875,-0.010768131211394045,0.24018451283143247,0.9988057652054261,-0.007869395935875156,-0.06007943631697926,-0.054750473524334715,0.134445236598638,0.13481668807290093,0,1,0
0.8817635270541082,-0.0062043637516929605,0.2281883729850542,0.9987106617134929,-0.004755174596659868,-0.06087636081682507,-0.03984622499229008,0.13429565822853745,0.1346548184552079,0,1,0
0.9018036072144289,-0.001884320221469977,0.21600217651114917,0.9986729143226237,-0.001887369543457943,-0.061385294283442575,-0.025446673330875177,0.13405572412564404,0.13439733876715731,0,1,0
0.9218436873747494,0.002189559943481627,0.2036940082475802,0.9986849189444377,0.0006002310906987355,-0.06162051856494762,-0.011761214075253107,0.1338067697604359,0.13412980039578004,0,1,0
0.9418837675350701,0.006016005470621729,0.1913222763570051,0.998738866309699,0.002697368263067855,-0.06159712795268729,0.0011695306130174252,0.1335914940589304,0.1338966254328623,0,1,0
0.9619238476953907,0.0095947696338353,0.1789382081606786,0.9988280280689313,0.004458087961619036,-0.061329650975722357,0.01337384884824556,0.13332044336429763,0.13360753634612166,0,1,0
0.9819639278557114,0.012926727191297345,0.1665978778731022,0.9989440946187734,0.005803327492105311,-0.060832716464848155,0.024846725543710202,0.13303099967201898,0.13329488287687333,0,1,0
1.002004008016032,0.0160137461547614,0.15435094817320283,0.9990782035076357,0.006705444443109114,-0.060125082841512224,0.035381681166796485,0.13285854842427672,0.13310578624577846,0,1,0
1.0220440881763526,0.01885836794308247,0.14223108941605356,0.9992251125342783,0.007345451332128237,-0.05922024514719551,0.04524188471583521,0.09643461081054405,0.09523672609395278,0,1,0
1.0420841683366733,0.021529763070683834,0.13356975638006818,0.9982863316341659,-0.04693904500561575,-0.05927447145324225,-0.0027113153023367795,0.10496647177733506,0.10436558628864287,0,1,0
1.062124248496994,0.024015171090940764,0.12427040101284652,0.9965241873112809,-0.08810721614425324,-0.05980936265087242,-0.026744559881508676,0.11506774341899308,0.11491596718889252,0,1,0
1.0821643286573146,0.02629644816519654,0.11406385371278882,0.994244849812536,-0.11396687493724551,-0.0604652354579212,-0.032793640352438355,0.12286408827097871,0.12302502854600694,0,1,0
1.1022044088176353,0.028357862169344914,0.10307070020741868,0.9916839180344111,-0.12804658890624304,-0.0609918141676409,-0.026328935485985527,0.12863590955605061,0.1289966324739054,0,1,0
1.122244488977956,0.030186714159351074,0.09144259950030803,0.989015175136111,-0.13343714491500283,-0.06122938222872237,-0.011878403054073857,0.13273333185842381,0.1332117746864135,0,1,0
1.1422845691382766,0.03177371202977895,0.07934989352139395,0.9863615141027896,-0.1326830516660723,-0.06108400372622523,0.007268925124857209,0.13549823723705245,0.1360350207265109,0,1,0
1.1623246492985972,0.03311308954602393,0.06696887581224915,0.9838054808375839,-0.1278016632602833,-0.06050931558489501,0.028734407066511536,0.13722346429351462,0.13777680060060113,0,1,0
1.1823647294589177,0.0342025346950127,0.05447225744943839,0.9813982670847751,-0.12036068764044396,-0.059492431432155844,0.050844207636957975,0.13817359567408993,0.13871412068076552,0,1,0
1.2024048096192383,0.03504293293454778,0.04201991197675384,0.9791677664977013,-0.11152502935368525,-0.058043982367087216,0.07242245325343238,0.1385604886504611,0.13906802592621484,0,1,0
1.222444889779559,0.03563802978186825,0.029754842366023528,0.9771250014518493,-0.1021382522926006,-0.05619074658675378,0.09266178901667117,0.13856046820614404,0.13902356412307149,0,1,0
1.2424849699398797,0.0359940363937168,0.01780033059242741,0.9752694749740266,-0.09277632389113463,-0.05396865467697857,0.11110459548876064,0.13830166009710082,0.13871224999686163,0,1,0
1.2625250501002003,0.036119250871911125,0.006260723909716132,0.9735930057897061,-0.08382345921602849,-0.05142006683952295,0.12742939187278085,0.13788794224921597,0.13824176867553417,0,1,0
1.282565130260521,0.03602368837422397,-0.004778124884357806,0.9720828450143946,-0.07550803876557671,-0.048590717462512964,0.14146746885049927,0.13740657580535404,0.13770313890547636,0,1,0
1.3026052104208417,0.03571872771145848,-0.015248033138274575,0.9707242963157072,-0.06792743493436991,-0.045526702243185106,0.15320076096639237,0.1368997862790787,0.1371395725736155,0,1,0
1.3226452905811623,0.035216834967775425,-0.025094637184152987,0.9695019606543193,-0.061116783069396254,-0.0422736856283736,0.16265083074057596,0.13640882971028148,0.13659363070016078,0,1,0
1.342685370741483,0.034531301989319585,-0.03427664892279184,0.9684009576277169,-0.05505015133011584,-0.038875854701800286,0.16989154632866574,0.13595575786918637,0.13608840920558798,0,1,0
1.3627254509018036,0.03367602878586115,-0.04276366017292187,0.9674075758270159,-0.04966909003505573,-0.0353750833935729,0.17503856541136928,0.13555043134828498,0.1356339634895354,0,1,0
1.3827655310621243,0.03266533842688123,-0.05053451794899615,0.9665095518673005,-0.044901197985770205,-0.03181077761479575,0.17821528893885788,0.1352018234725629,0.13523972811720406,0,1,0
1.4028056112224447,0.031513809097597004,-0.057576466464211294,0.9656963297727665,-0.040661104726696505,-0.02821950792850123,0.1795634843147258,0.13491256309423202,0.1349086552061711,0,1,0
1.4228456913827654,0.030236128514686086,-0.06388402914554585,0.9649591331546985,-0.036859830903403855,-0.02463475343688682,0.17923772458072057,0.1346708683690833,0.13462898423165606,0,1,0
1.442885771543086,0.028846975083368784,-0.06945767156586508,0.9642906087916658,-0.03342621815163374,-0.02108688786203044,0.1773932787428187,0.13447939602750386,0.13440321097997343,0,1,0
1.4629258517034067,0.02736089735250339,-0.07430388654326979,0.9636848978450008,-0.030285547333254687,-0.017603311728002353,0.17417880670140448,0.13431895900053503,0.1342123658327096,0,1,0
1.4829659318637274,0.025792221353840458,-0.07843379993314664,0.9631370677542788,-0.027391504536101015,-0.014208281883760361,0.16975149221209923,0.13419234207825617,0.13405843414551638,0,1,0
1.503006012024048,0.024154951101205132,-0.08186351263176635,0.9626431821898075,-0.024694278223561864,-0.010923554841239644,0.1642363521260361,0.1340911897725749,0.13393422118740134,0,1,0
1.5230460921843687,0.022462687071116937,-0.08461320150440967,0.9622000715562822,-0.022155531676267638,-0.007767461348253006,0.15780467464933182,0.14886355565976025,0.14692053323232634,0,1,0
1.5430861723446894,0.02072402934643497,-0.08693288623409844,0.9622190714833819,0.0009499963549858201,-0.006168701367273329,0.07993799904898387,0.14334194784977605,0.1423439148846521,0,1,0
1.56312625250501,0.018954008930379594,-0.08850102080276882,0.9625503103641988,0.016561944040845062,-0.005369747987283768,0.039947668999478006,0.1396724784023205,0.13912181022528974,0,1,0
1.5831663326653307,0.017160053687203244,-0.08969776215881757,0.9630914675678826,0.02705786018419027,-0.005011993704065676,0.017887714160904605,0.1368708220856768,0.13661872846205994,0,1,0
1.6032064128256511,0.015345911581223722,-0.09070710529897609,0.9637637899165825,0.03361611743499954,-0.0048562056297802155,0.007789403714273044,0.13475459184359243,0.13469633480248674,0,1,0
1.6232464929859718,0.013513354061548044,-0.09162787598378387,0.964507337819338,0.03717739513777226,-0.004747148789067361,0.005452842035642684,0.13317673512710546,0.13323917501763,0,1,0
1.6432865731462925,0.011663240660535442,-0.09250567005063008,0.9652770878976855,0.03848750391737907,-0.00458822775743834,0.007946051581451083,0.1320250056056579,0.13215738282371073,0,1,0
1.6633266533066131,0.009796176260935648,-0.09335321997998967,0.966039929539569,0.03814208209417231,-0.00432353309976261,0.013234732883786494,0.13120843616404704,0.1313758081250061,0,1,0
1.6833667334669338,0.007912907367853356,-0.09416344465411466,0.9667721953706029,0.03661329155169623,-0.003925155436262118,0.019918883175024573,0.13066407332333005,0.13084289340993635,0,1,0
1.7034068136272544,0.0060145472233215525,-0.09491800722659016,0.967457957278791,0.03428809540940664,-0.00338404676514242,0.027055433555984845,0.13033106999247562,0.13050565162545846,0,1,0
1.723446893787575,0.004102691300765222,-0.0955927961278165,0.9680873331708771,0.03146879460430556,-0.0027037174069540738,0.03401646790941729,0.13016274157182225,0.13032303577333418,0,1,0
1.7434869739478958,0.002179459613327075,-0.09616158437190736,0.9686551813471147,0.02839240881187761,-0.0018957154946282954,0.04040009561628895,0.1301342745863553,0.13027437234403233,0,1,0
1.7635270541082164,0.00024749010372201053,-0.09659847548025322,0.969160421475981,0.025262006443318476,-0.0009763079289453901,0.045970378284145276,0.13018248418213602,0.1302988057034997,0,1,0
1.783567134268537,-0.00169009503686675,-0.09687925702943803,0.9696041921936611,0.02218853588400282,3.538747605113337e-05,0.050584770249826175,0.1302965465593173,0.13038767026183515,0,1,0
1.8036072144288577,-0.003629746540919522,-0.09698257520263859,0.969989559167254,0.01926834867964727,0.0011191315083462362,0.054187201614755126,0.13046057807467898,0.13052655475365033,0,1,0
1.8236472945891782,-0.005567556067652208,-0.09689047633663429,0.9703210634032562,0.016575211800109697,0.0022547428775720143,0.056780568461288886,0.13065332829894719,0.1306949530116881,0,1,0
1.8436873747494988,-0.007499329878516345,-0.09658869054320682,0.9706041003320489,0.014151846439637504,0.003422693921917356,0.05839755221726702,0.13086081361246915,0.13087949833908527,0,1,0
1.8637274549098195,-0.00942066434587548,-0.09606672336795671,0.9708445131217219,0.012020639483651266,0.004604603812161313,0.05909549451219781,0.13109568091795307,0.13109270662098912,0,1,0
1.8837675350701402,-0.011327018283572061,-0.09531769688482906,0.9710489646167547,0.01022257475163856,0.005783132862166718,0.058926452500270315,0.13129543050564416,0.13127343853738205,0,1,0
1.9038076152304608,-0.01321378950982086,-0.09433856131243994,0.9712231048043373,0.008707009379129604,0.006943069969334045,0.05799685535836635,0.13148495075943967,0.13144602279396395,0,1,0
1.9238476953907815,-0.015076381558017127,-0.09312960240981337,0.9713723010258764,0.0074598110769549565,0.008070882957243628,0.056390649395479185,0.13166649796865162,0.13161272211446404,0,1,0
1.9438877755511021,-0.016910263557278597,-0.09169409996307346,0.9715017056171037,0.006470229561366933,0.009154722160309055,0.054191960153271226,0.13182894458631372,0.13176235470049782,0,1,0
1.9639278557114228,-0.01871102668149702,-0.09003815621092123,0.9716159262689416,0.0057110325918919985,0.01018437542637246,0.05148266330317026,0.13196414853688349,0.1318866665305878,0,1,0
1.9839679358717435,-0.020474434822242538,-0.08817040703727581,0.9717187844650405,0.005142909804946453,0.011151176990229952,0.0483400781928746,0.13208041813523133,0.13199395928634916,0,1,0
2.004008016032064,-0.022196464883601115,-0.08610150306792895,0.9718135632172996,0.004738937612958571,0.012048000677863598,0.04484118438168241,0.13217753112701508,0.1320838836646716,0,1,0
2.024048096192385,-0.023873342752050823,-0.08384389342248542,0.9719030001218906,0.004471845229546016,0.012869156795108035,0.041057805862221956,0.1640368209451703,0.16665638760028015,0,1,0
2.0440881763527052,-0.025489742842866793,-0.08082000454079855,0.9729711625518396,0.0534081214974477,0.015785281633120315,0.1458062419006141,0.1490707244900858,0.15007956847878445,0,1,0
2.064128256513026,-0.027047691867785502,-0.07789745124593542,0.9745498768771573,0.07893571626588738,0.019505805179323887,0.18602617731017831,0.14421794268918592,0.14456084220618165,0,1,0
2.0841683366733466,-0.028536726458029654,-0.07445172951220766,0.9764848593879482,0.09674912553953902,0.02349711632994329,0.19956555753097058,0.13984429040169727,0.13973328667492338,0,1,0
2.1042084168336674,-0.029943638618974353,-0.07034560804723491,0.9786392070450699,0.10771738285608658,0.027395794935060565,0.19493393025586375,0.13654188964050668,0.13614571060998262,0,1,0
