time,x,x_dot,z,z_dot,theta,theta_dot,u1,u2,x_ref,z_ref,theta_ref
0.0,-0.2742916154477275,0.01864345203394646,0.891950211964187,0.0247398571353227,0.06232587042284299,-0.09728282766439607,0.23715174732960015,0.2351246297093018,0,1,0
0.02004008016032064,-0.27348326159950176,0.04041769241128844,0.8955077031077259,0.17787455717694625,0.058760227721697825,-0.17828213505725848,0.23576878825847525,0.24410115501066976,0,1,0
0.04008016032064128,-0.27223287309936006,0.06251942500708473,0.9022372100748348,0.3364753483554498,0.06186379711430977,0.1551784696305964,0.11559966752848448,0.11939828569854255,0,1,0
0.06012024048096192,-0.27077937408996344,0.07267495046983019,0.9085149335546955,0.3138861739930335,0.06800337826627761,0.3069790575983914,0.13152236482814914,0.13414962699629532,0,1,0
0.08016032064128256,-0.2690840792363385,0.08476474268124681,0.9147943689602895,0.3139717702797054,0.07623831009655185,0.41174659151371235,0.12957827243711487,0.13008374595312253,0,1,0
0.1002004008016032,-0.2671291848259577,0.09774472051903986,0.9209851004511825,0.3095365745446502,0.08486830651907032,0.4314998211259241,0.13744219115348885,0.1367431763758022,0,1,0
0.12024048096192384,-0.26486698145595083,0.11311016850034476,0.9272994781395679,0.31571888441927093,0.09292922887302722,0.40304611769784326,0.14067593341152132,0.1391222189611017,0,1,0
0.1402805611222445,-0.26225582441608036,0.1305578519935246,0.9338173489620312,0.32589354112316254,0.09973817217317554,0.34044716500741745,0.14152445549880316,0.13949694855600567,0,1,0
0.16032064128256512,-0.2592611558743603,0.14973342708600285,0.940553491171268,0.3368071104618394,0.1049178458955838,0.2589836861204121,0.14019138227708342,0.1379875916193415,0,1,0
0.18036072144288576,-0.2558594092933904,0.170087329048496,0.9474629470461671,0.34547279374495327,0.1083292938423068,0.17057239733615107,0.13716258636417306,0.1349394836607825,0,1,0
0.2004008016032064,-0.2520392688414095,0.19100702259904676,0.9544537220548006,0.34953875043167787,0.10995907529790497,0.08148907277990732,0.13269752710803553,0.13058070065547148,0,1,0
0.22044088176352705,-0.2478016982019047,0.21187853197523845,0.9613942311735275,0.3470254559363456,0.10989398776788986,-0.003254376500753567,0.1282798374504436,0.12634145731075752,0,1,0
0.24048096192384769,-0.24315494731972676,0.23233754410889684,0.9681563159700677,0.33810423982701104,0.10827824836888901,-0.08078696995004545,0.12374864385718323,0.1220311632813687,0,1,0
0.2605210420841683,-0.2381140997272462,0.25204237962402737,0.9746099895814979,0.32268368057151375,0.10528992331874772,-0.1494162525070638,0.11975240921461008,0.11825933232369294,0,1,0
0.280561122244489,-0.23269788168998645,0.2708109018629876,0.9806418360325078,0.3015923225504928,0.10110988995263404,-0.20900166830568262,0.11656749530376515,0.11530531651761598,0,1,0
0.3006012024048096,-0.2269267338664729,0.28855739117567675,0.9861630304267901,0.27605971971411863,0.09592416531280631,-0.25928623199138695,0.11425255911163962,0.1132066680468984,0,1,0
0.32064128256513025,-0.22082191022930026,0.30524118185863236,0.9911106000717793,0.24737848224946238,0.08990696332068933,-0.3008600996058487,0.11280060233331611,0.11195167772856354,0,1,0
0.3406813627254509,-0.2144049837136013,0.32084632578494693,0.9954470128445981,0.21682063864093995,0.08321689596968963,-0.3345033675499854,0.11206864391774427,0.11139761906714378,0,1,0
0.3607214428857715,-0.20769793246514245,0.3353525624229426,0.9991558531516886,0.18544201535452734,0.07599716308515635,-0.36098664422666304,0.11207562547688475,0.11156452358188201,0,1,0
0.3807615230460922,-0.20072290796656395,0.34875122492892574,1.002242311389344,0.15432291188276143,0.06837642010880456,-0.3810371488175899,0.11265702818262752,0.11228774482219835,0,1,0
0.4008016032064128,-0.19350257355899914,0.3610167203782404,1.0047282549960108,0.12429718033333938,0.06046867864576061,-0.3953870731521973,0.11372977702019554,0.11348617243998446,0,1,0
0.42084168336673344,-0.1860602340726106,0.37211697431942725,1.0066497468228406,0.09607459134148343,0.05237488709976024,-0.4046895773000201,0.11516558834023974,0.11503355794892278,0,1,0
0.4408817635270541,-0.1784200424700198,0.38200958012954056,1.008053235385263,0.07017442812112087,0.0441845701118804,-0.4095158493939918,0.1168157262007031,0.1167831606560604,0,1,0
0.4609218436873747,-0.1706071648048004,0.39064388326097027,1.0089911437916554,0.046895420319622655,0.03597743706717537,-0.4103566522352506,0.11861590144608564,0.11867158646380829,0,1,0
0.48096192384769537,-0.16264772202829808,0.39797213882511556,1.009519945918971,0.026440106365773597,0.02782411052388719,-0.4076663271644094,0.1204703348496244,0.12060433494558119,0,1,0
0.501002004008016,-0.1545687216450517,0.40395001916231954,1.0096973216967542,0.008868788889160772,0.019787162224606983,-0.40184741496401033,0.12232369600627896,0.12252756633600097,0,1,0
0.5210420841683366,-0.146397879018497,0.40854213132773476,1.0095805202962922,-0.005840070023101895,0.011922318181688525,-0.3932422021459229,0.12412638413982804,0.12439070768842267,0,1,0
0.5410821643286573,-0.13816339751761703,0.4117240750439987,1.009224864474665,-0.017782791081360737,0.004277692543615793,-0.3822312819036365,0.12583224105866117,0.12614908209600614,0,1,0
0.561122244488978,-0.12989371276311992,0.41348423772485454,1.0086824017635694,-0.027123135554789818,-0.003105014358691751,-0.36913534511537716,0.12742887289722035,0.12779017612555887,0,1,0
0.5811623246492986,-0.1216172111383065,0.41382508124067136,1.0080015412028192,-0.03404302803751188,-0.010190600215544049,-0.3542792928426149,0.12889216271350584,0.1292912972910684,0,1,0
0.6012024048096192,-0.11336195646453591,0.41276273368852945,1.007226373207551,-0.0387583997634013,-0.01694920973622624,-0.33793047603410964,0.13019840998897894,0.13062842314584291,0,1,0
0.6212424849699398,-0.10515542078411791,0.4103267840209003,1.006395983034142,-0.041519508670452586,-0.023356582548820847,-0.3203686406297305,0.13134453197212684,0.1317995979353345,0,1,0
0.6412825651302605,-0.09702423014744782,0.4065595318335042,1.0055444027550604,-0.042579013954076816,-0.029393141988659437,-0.3018279719919293,0.13233445715904749,0.13280958917486513,0,1,0
0.6613226452905812,-0.08899394129265645,0.40151444273956854,1.0047007707867093,-0.04218159841755308,-0.035043315891950505,-0.2825086951645532,0.13317002278249704,0.13366109301692577,0,1,0
0.6813627254509018,-0.08108884622015988,0.39525475362482837,1.0038894322561374,-0.04056692652859393,-0.040294842760945145,-0.2625763434497325,0.13385930094505932,0.13436140045863318,0,1,0
0.7014028056112224,-0.07333180899927795,0.3878518610440964,1.0031302010803596,-0.0379615587888852,-0.045139391195180595,-0.2422274217117717,0.1344002379604348,0.13490814492981956,0,1,0
0.721442885771543,-0.06574411877517802,0.3793845112049966,1.0024383292189325,-0.03459359307135474,-0.04957280439743726,-0.22167066011283376,0.13485699968026943,0.1353684253953021,0,1,0
0.7414829659318637,-0.05834545813115621,0.36993303220109086,1.0018264835061041,-0.030592285641421663,-0.05359274811195152,-0.20099718572571396,0.13516458974036785,0.13567467291440757,0,1,0
0.7615230460921844,-0.051153739621080475,0.35958592550378665,1.0013028132885358,-0.026183510878423546,-0.05720076623161249,-0.18040090598304778,0.13533699799316676,0.13584203443205956,0,1,0
0.781563126252505,-0.044185052848373284,0.34843433863535944,1.0008714121276172,-0.021570058045923733,-0.060401350703731004,-0.16002922360592672,0.13542493313083126,0.13592303602452602,0,1,0
0.8016032064128256,-0.03745370723300041,0.3365672807686434,1.0005338717508065,-0.016877018840533595,-0.06320048468471699,-0.1399566990492988,0.13540088626285648,0.13588843397567132,0,1,0
0.8216432865731462,-0.030972172959512417,0.3240767136743998,1.00028846418407,-0.012270378336836568,-0.06560702931028459,-0.1203272312783791,0.13534753843040362,0.1358236280829166,0,1,0
0.8416833667334669,-0.02475123504406751,0.3110468957722454,1.000132646644616,-0.007790876972695977,-0.06763054642280877,-0.10117585562620884,0.13519257286451442,0.13565391147340533,0,1,0
0.8617234468937875,-0.01879988441945525,0.297567531230613,1.0000609005968195,-0.0035873023898301227,-0.0692832108053124,-0.08263321912518069,0.1349827873007304,0.13542785369563734,0,1,0
0.8817635270541082,-0.013125438852425935,0.2837222783514658,1.0000661543939573,0.0002626898568879911,-0.07057839117467776,-0.06475901846826829,0.13473440589869856,0.13516196783432594,0,1,0
0.9018036072144289,-0.007733625719397175,0.269590656651438,1.0001402747877954,0.0037060196919049345,-0.07153041903847551,-0.04760139318988765,0.13445918306932478,0.13486822449394426,0,1,0
0.9218436873747494,-0.002628665570951966,0.25524800742226045,1.000274421889377,0.00670735507908784,-0.07215441603431737,-0.031199849792093233,0.13416744110242596,0.1345571415764822,0,1,0
0.9418837675350701,0.002186640501513958,0.24076530362329618,1.000459358679266,0.009246839494447608,-0.07246613793913441,-0.015586095240852105,0.1338682216851151,0.13423794326828953,0,1,0
0.9619238476953907,0.006710821532629713,0.22620905155578777,1.0006857200579573,0.01131806893456121,-0.07248182932744233,-0.0007845694153952205,0.13356928186888953,0.13391855414779275,0,1,0
0.9819639278557114,0.010943647174327314,0.21164128208488006,1.0009442416785812,0.012926081031195542,-0.07221809032970294,0.013186949886969303,0.13327719123293055,0.1336056975120844,0,1,0
1.002004008016032,0.014886039264041959,0.19711960448573224,1.0012259518227618,0.014085507209027294,-0.07169176009130439,0.02631651191992816,0.1329973796167993,0.13330494543526458,0,1,0
1.0220440881763526,0.018539985525727134,0.1826973130842588,1.0015223281091827,0.0148188143210512,-0.07091980937733668,0.038597535698386365,0.0935703883564118,0.09144390754333616,0,1,0
1.0420841683366733,0.021994137397694697,0.17270759359837823,1.0006323355344093,-0.04449962873867518,-0.07184968420382778,-0.046493741324555846,0.09865102652671337,0.09735962950479252,0,1,0
1.062124248496994,0.025239264396367887,0.16225634993365956,0.9987197439085673,-0.09562958129209796,-0.07381189771467261,-0.09811067554224212,0.1110325095315512,0.11055986141021486,0,1,0
1.0821643286573146,0.028245637501758167,0.15031865526951402,0.9961633504606311,-0.1278196723968121,-0.07615050521261077,-0.11693037489690747,0.12118322355610912,0.12130767986243049,0,1,0
1.1022044088176353,0.03098420552870268,0.1369284013472256,0.99327208172416,-0.14456343682355244,-0.07838745828840377,-0.11184765378964924,0.12872731721741862,0.12924145202270937,0,1,0
1.122244488977956,0.03342939873568476,0.12225966034910403,0.990274270463929,-0.1498905630115504,-0.0802111148282688,-0.09118282699325143,0.13399503589388892,0.13474865161097632,0,1,0
1.1422845691382766,0.03556048604288366,0.10655436535994492,0.9873284835620917,-0.14728934509186478,-0.08143028784286714,-0.06095865072991856,0.13732450981880756,0.13820540082569166,0,1,0
1.1623246492985972,0.03736249380343546,0.09010038802759024,0.9845342821547237,-0.1397100703683966,-0.08194371378199258,-0.02567129695627223,0.13919313319649604,0.14012234234371637,0,1,0
1.1823647294589177,0.038826233461472556,0.07318698290185474,0.981946983009107,-0.1293649572808358,-0.0817133512163302,0.011518128283120294,0.1400024117896023,0.1409248368206166,0,1,0
1.2024048096192383,0.03994796929353731,0.05608679160323787,0.9795899812744009,-0.11785008673530403,-0.08074523505816136,0.048405807908441546,0.14003937174936348,0.14092108314392393,0,1,0
1.222444889779559,0.04072894720750455,0.03904889569836197,0.9774635998364417,-0.10631907189795888,-0.07907256209776158,0.08363364801998924,0.13961686965918113,0.14043337857170088,0,1,0
1.2424849699398797,0.041174590175498745,0.022282148399709722,0.9755544871290608,-0.09545563536904744,-0.07674813297285782,0.11622145624518815,0.138916822216152,0.13965349495479581,0,1,0
1.2625250501002003,0.04129385173126972,0.00596307778854871,0.9738411239313978,-0.08566815988315257,-0.07383644291121058,0.14558450308236037,0.13809133498296047,0.13874010836937112,0,1,0
1.282565130260521,0.04109855865027246,-0.009764654049862681,0.9722983830096703,-0.07713704608637306,-0.07040840481008806,0.17140190505612654,0.13724344112796796,0.1378013588611296,0,1,0
1.3026052104208417,0.040602843109779733,-0.02478577702463655,0.9709006076962995,-0.06988876566854178,-0.06653724763318743,0.19355785884503043,0.1364567105317059,0.13692422960424455,0,1,0
1.3226452905811623,0.039822628861282044,-0.03901071242488443,0.9696240868331872,-0.06382604315561048,-0.062295774360696665,0.21207366362453886,0.13576284499392,0.13614226705194532,0,1,0
1.342685370741483,0.038775256269155435,-0.05236862960633046,0.968447973861879,-0.058805648565414405,-0.05775487895446407,0.22704477031162873,0.13520008826957047,0.1354953321918324,0,1,0
1.3627254509018036,0.03747912420695423,-0.06480660311006053,0.9673553993938679,-0.05462872340055172,-0.052982248351026814,0.23863153017186342,0.13476654329433482,0.13498168976372274,0,1,0
1.3827655310621243,0.03595344113238705,-0.07628415372835876,0.9663333800108688,-0.0511009691499583,-0.04804223175681035,0.24700082971082285,0.13445812100714194,0.1345984187716898,0,1,0
1.4028056112224447,0.03421800101339602,-0.08677200594955148,0.9653726828160154,-0.048034859742669876,-0.04299490648419352,0.25236626363084175,0.1342623271271296,0.13433355650086035,0,1,0
1.4228456913827654,0.03229299090769978,-0.09625050528481198,0.9644674374575224,-0.04526226792464925,-0.03789565531823325,0.25496255829801395,0.1341658289984363,0.13417385042551316,0,1,0
1.442885771543086,0.03019881519769804,-0.10470878550008685,0.9636147221571335,-0.04263576501944197,-0.03279510658935812,0.2550274364437557,0.13413775406170111,0.13408725268679503,0,1,0
1.4629258517034067,0.027955954166143646,-0.11214305157771973,0.962813617018344,-0.040055256939473545,-0.02774007949764176,0.2527513545858181,0.13417470469403586,0.13407206579981373,0,1,0
1.4829659318637274,0.025584795837381262,-0.1185579164381191,0.9620651184319964,-0.03742492931738143,-0.022772228625716505,0.24839254359626275,0.13424850564001892,0.13409879511207975,0,1,0
1.503006012024048,0.02310550329523869,-0.12396462710712855,0.9613712791512239,-0.03469196403862643,-0.017929106160508766,0.24215612326038705,0.13431179331147103,0.13411893660246316,0,1,0
1.5230460921843687,0.0205378978407098,-0.12838027272644448,0.9607337868728716,-0.03187461391761332,-0.01324507998433785,0.2342013088085456,0.15319971492197945,0.1516624088647308,0,1,0
1.5430861723446894,0.017891646143042433,-0.13231258488336836,0.9606926220596987,-0.002058240658643476,-0.009795509987416628,0.17247849984606112,0.14790721095386733,0.14712157870994355,0,1,0
1.56312625250501,0.015189901724826042,-0.13508722091081957,0.9611019080365805,0.020464298844086997,-0.006977677683427144,0.14089161519947435,0.14273716263603015,0.1422282308572878,0,1,0
1.5831663326653307,0.01244926087373156,-0.13703204255472412,0.9618123288426721,0.03552104030458228,-0.004569561058970294,0.12040583122284246,0.138944940280514,0.1386211403238072,0,1,0
1.6032064128256511,0.009682430303241282,-0.1383415285245139,0.9627140908365542,0.04508809969410645,-0.002422642103067965,0.10734594779511641,0.13608280681894758,0.1358791262022467,0,1,0
1.6232464929859718,0.006899724266795176,-0.13913530182230532,0.9637240500623491,0.05049796128973903,-0.00044056917056190274,0.0991036466253031,0.13396133101138516,0.1338326244239867,0,1,0
1.6432865731462925,0.004109962520805718,-0.13948808729947287,0.9647803879446747,0.05281689411627961,0.001436795891449274,0.09386825310055881,0.13243182046740626,0.13234705548290415,0,1,0
1.6633266533066131,0.0013210372661171628,-0.13944626273442776,0.9658384043455166,0.05290082004209758,0.003244706213364445,0.09039551609575854,0.1313682732698313,0.13130630590999068,0,1,0
1.6833667334669338,-0.0014597328348422644,-0.13903850504797136,0.9668669193266826,0.0514257490582972,0.005001465658612626,0.08783797226240908,0.1306686998618149,0.13061536884742447,0,1,0
1.7034068136272544,-0.004225388703142981,-0.13828279341503583,0.9678453442343524,0.04892124538349406,0.006714031502512645,0.08562829219500084,0.13024962977827514,0.13019562878983734,0,1,0
1.723446893787575,-0.006969209694602452,-0.1371910495729735,0.9687612716050654,0.045796368535651055,0.00838190925110119,0.08339388742942734,0.1300413781761715,0.12998105803751347,0,1,0
1.7434869739478958,-0.009684654659748358,-0.13577224825729528,0.9696084576710019,0.04235930329682295,0.010000085381069189,0.08090880649839985,0.12998580059460982,0.12991596367525016,0,1,0
1.7635270541082164,-0.012365345005906626,-0.13403451730791335,0.9703851308451581,0.038833658707808395,0.011560992768064262,0.07804536934975367,0.13004146182602558,0.1299606330462012,0,1,0
1.783567134268537,-0.015005073018715457,-0.1319864006404415,0.9710927862661637,0.035382771050282154,0.013055891026818997,0.07474491293773682,0.13017042034633797,0.1300780118500768,0,1,0
1.8036072144288577,-0.01759782789239211,-0.1296377436838327,0.9717350728768862,0.032114330536128645,0.014475577263757256,0.07098431184691284,0.13034449637667989,0.13024110554464216,0,1,0
1.8236472945891782,-0.02013783034569183,-0.12700012266498595,0.9723169754481668,0.02909512856402889,0.01581133454909656,0.06678786426696538,0.1305424476565002,0.13042907687045027,0,1,0
1.8436873747494988,-0.02261957187605986,-0.12408707651840147,0.9728441915882953,0.02636080700642758,0.017055255310804776,0.06219603808541045,0.13074783375325605,0.13062565385015812,0,1,0
1.8637274549098195,-0.02503785405806022,-0.12091410910001797,0.9733226482557591,0.023922833373193418,0.018200375195515924,0.05725599423555767,0.13094917797639108,0.1308197316498643,0,1,0
1.8837675350701402,-0.0273878250949072,-0.11749855184234897,0.9737581688849811,0.021776031461103774,0.019240969539034605,0.052029717175934,0.13114650629002714,0.13101123652568286,0,1,0
1.9038076152304608,-0.02966500844907546,-0.11385916770841298,0.9741564746274622,0.0199152871240558,0.020172472340749134,0.046575140085726496,0.13131542681577327,0.13117630478009804,0,1,0
1.9238476953907815,-0.03186534046598661,-0.11001660084555756,0.9745224714705172,0.018299842152747763,0.020991897652087064,0.04097126556689646,0.13146373162363278,0.13132221611295533,0,1,0
1.9438877755511021,-0.03398518726483101,-0.1059923399422202,0.9748604759273848,0.016900222843381177,0.021697428194344275,0.03527652711286078,0.1315908313953268,0.1314481819260312,0,1,0
1.9639278557114228,-0.036021359387525986,-0.1018086061347487,0.9751741966630473,0.0156860367831255,0.022288254854213273,0.029541332993449555,0.1316965246515759,0.1315540822961478,0,1,0
1.9839679358717435,-0.03797112125016167,-0.09748809313178425,0.975466731576904,0.014626745692834396,0.022764641025266357,0.023819308552654204,0.1317850853591825,0.13164406717710922,0,1,0
2.004008016032064,-0.03983219339059001,-0.0930536070214166,0.975740694190782,0.013698130693900863,0.023127822476782543,0.018159072575809527,0.13185161629032036,0.13171353256009766,0,1,0
2.024048096192385,-0.041602755928729016,-0.08852812690695061,0.975998074179678,0.012868999444797618,0.023380241130220584,0.012620932671901876,0.1621333823305384,0.16538166539331495,0,1,0
2.0440881763527052,-0.04325956738294854,-0.08284057271097622,0.9771860070055279,0.05939664129249911,0.02623108166756869,0.1425420268674054,0.14460683074899033,0.14589530359632571,0,1,0
2.064128256513026,-0.0448143050772434,-0.07773688471474305,0.9787554517022171,0.07847223483445946,0.030110090530027656,0.1939504431229484,0.14214050016077417,0.14260856546120804,0,1,0
2.0841683366733466,-0.04625701834387737,-0.07213566333169835,0.9806205556039022,0.09325519508425192,0.0343598437403028,0.2124876605137574,0.1390263086145087,0.13892228473053705,0,1,0
2.1042084168336674,-0.0475744740644067,-0.06587278602646651,0.9826798819720668,0.10296631840823456,0.038522256376314755,0.2081206318005979,0.13662215513208284,0.13615929042473077,0,1,0
2.124248496993988,-0.04875191908260799,-0.05887225091006435,0.9848561808160741,0.10881494220036239,0.04231035749704159,0.18940505603634145,0.13462512319770908,0.13395162004398137,0,1,0
