time,x,x_dot,z,z_dot,theta,theta_dot,u1,u2,x_ref,z_ref,theta_ref
0.0,0.5479120971119267,-0.012224312049589542,1.3585979199113825,0.039473605811872786,-0.1623290608449402,0.09512447032735119,0.05632337498358441,0.06430073975008636,0,1,0
0.02004008016032064,0.5473790009441069,-0.02665480839099199,1.3572302652506592,-0.0683827330361641,-0.1540463468507639,0.41413569970881503,0.06800054208741979,0.05632337785750226,0,1,0
0.04008016032064128,0.5465486904130661,-0.041515526552040556,1.3537614072533448,-0.17344289986571537,-0.15511441411034477,-0.05340336297904291,0.06517802870827849,0.056323374905193735,0,1,0
0.06012024048096192,0.5454429713458634,-0.05528595336013482,1.348154524766961,-0.2803441243191832,-0.16326529976929943,-0.40754428294773515,0.06065612707344107,0.05632337494135996,0,1,0
0.08016032064128256,0.5440706484190548,-0.06861614634042758,1.3403456321642766,-0.3904446301342189,-0.17487309331763137,-0.5803896774165948,0.05834202502670301,0.05632337490490112,0,1,0
0.1002004008016032,0.5424237426831992,-0.08234528679278395,1.3303016196081636,-0.5022006278056521,-0.18808102177904468,-0.6603964230706669,0.056325319142435853,0.056323375009382844,0,1,0
0.12024048096192384,0.5404884697580628,-0.0967636462568185,1.3179931484336642,-0.6154235587249679,-0.20127296065912467,-0.659596944004,0.056323374905802796,0.05712265289138854,0,1,0
0.1402805611222445,0.5382414655745058,-0.11235020917784606,1.3034317012360501,-0.7280723598807095,-0.2138080186652473,-0.6267529003061273,0.056323374946746343,0.05831685590092967,0,1,0
0.16032064128256512,0.535658049890452,-0.12917078420269423,1.2866345735451294,-0.8398563845460333,-0.22473210453046694,-0.546204293260985,0.09814786777799349,0.10083148193410693,0,1,0
0.18036072144288576,0.532452975869786,-0.1602537010332972,1.2688230218653862,-0.8905775839871668,-0.2334959144753902,-0.4381904972461626,0.1486569261397609,0.15228381025253063,0,1,0
0.2004008016032064,0.5282592571588333,-0.20968593554763623,1.2514648834111437,-0.8679069227121283,-0.239348245331276,-0.2926165427942914,0.181843544590959,0.18618193467545816,0,1,0
0.22044088176352705,0.5228103523047242,-0.27244524270545273,1.2355173050896733,-0.7973789160735169,-0.24172387169934184,-0.11878131840329006,0.19802866640915576,0.20258774889497502,0,1,0
0.24048096192384769,0.515962458494653,-0.34239469050355353,1.2214391007443417,-0.7039102172665815,-0.24045011612553113,0.06368777869053444,0.19954220578771792,0.20393011216990928,0,1,0
0.2605210420841683,0.5076934884877742,-0.41344850034394326,1.2092645611678825,-0.6087269788229631,-0.23566712219620148,0.23914969646648468,0.19150285292418046,0.1954629273960268,0,1,0
0.280561122244489,0.49807078726711324,-0.4811350610330468,1.1987548262370353,-0.5254867465423638,-0.22772084640349866,0.3973137896351405,0.1798180260860519,0.18319902316231915,0,1,0
0.3006012024048096,0.48720554343386835,-0.5432621916622439,1.1895688645655396,-0.45929808357479235,-0.21707874109665096,0.5321052653423826,0.16600991401998694,0.16878198663958446,0,1,0
0.32064128256513025,0.47523544382453914,-0.5985049804664607,1.1813073126466802,-0.4130775959429723,-0.204232147132883,0.6423296981883985,0.15307104146770317,0.1552572676155471,0,1,0
0.3406813627254509,0.46229807545974994,-0.6468684182394606,1.1735977998201843,-0.3854756413247976,-0.18965359524421982,0.7289275944331574,0.14205076721297058,0.14370948604932787,0,1,0
0.3607214428857715,0.4485202349214919,-0.6888920269129007,1.1661245996343537,-0.3736600092915293,-0.17376837350581636,0.7942610869201765,0.1335075542006398,0.13470842071938594,0,1,0
0.3807615230460922,0.43401296256769906,-0.725363617689641,1.1586443857284567,-0.37401069529484654,-0.1569453815483277,0.8411495978744312,0.12746161105775256,0.1282746715716703,0,1,0
0.4008016032064128,0.4188717221307516,-0.7570620218473745,1.1509866686653505,-0.38288585315531753,-0.13949681213557935,0.8724284706374162,0.1239042761417228,0.1243998620455103,0,1,0
0.42084168336673344,0.4031779021880265,-0.784690997136253,1.1430536427099482,-0.39665129777011016,-0.12167797130915962,0.890942041320986,0.12249930063585064,0.12272792691092554,0,1,0
0.4408817635270541,0.38700252695945303,-0.8087687614286753,1.1348102485932157,-0.41216970583663454,-0.10370321401405722,0.8987378647551219,0.12280450242766879,0.12280650218623781,0,1,0
0.4609218436873747,0.3704101827710239,-0.8296172094214581,1.1262712139394708,-0.42695173268723763,-0.08575416065175341,0.8974526681151895,0.12436093285213738,0.12417292942849578,0,1,0
0.48096192384769537,0.3534623479763384,-0.8473917397342735,1.1174875864832503,-0.4391813728110254,-0.06798273178424466,0.8885714433754376,0.12680930857302208,0.12646144182454763,0,1,0
0.501002004008016,0.3362196429321631,-0.8621352522087655,1.1085360641232804,-0.44757611799848934,-0.050516402460702395,0.8733164661771129,0.12986541073706687,0.1293803305183797,0,1,0
0.5210420841683366,0.31874323289981576,-0.8738205016173666,1.0995104652559706,-0.4512799433654949,-0.033464254089005,0.8526074185848699,0.1332611782819529,0.13265435306030812,0,1,0
0.5410821643286573,0.3010956298349901,-0.8823801532412832,1.090513651818624,-0.44984067186733423,-0.01692276806500271,0.8270743012001146,0.13673824086432243,0.1360286913922979,0,1,0
0.561122244488978,0.2833409242915693,-0.8877352771710388,1.0816498935372398,-0.4431879140692112,-0.0009730219800786017,0.7974873042462056,0.14012650069958613,0.13933037871720677,0,1,0
0.5811623246492986,0.2655444570513,-0.8898233620134679,1.0730197711712466,-0.43150611829966584,0.014316971956452089,0.7644996968265345,0.14332081913995073,0.14245134902293766,0,1,0
0.6012024048096192,0.2477721871115036,-0.8886134969898196,1.0647170403208712,-0.4151365425187663,0.02888988775378939,0.7286457898668653,0.14613756830087674,0.1452086950655494,0,1,0
0.6212424849699398,0.23008987323681712,-0.8841156937343233,1.0568232649060902,-0.39468877073904657,0.0426996307401646,0.6904871493187599,0.1487275562614245,0.14774771768190573,0,1,0
0.6412825651302605,0.2125622747080782,-0.8763799264369454,1.049412312282985,-0.3705476311552573,0.05570690145332609,0.6503635356580744,0.1509224291462496,0.14989849687235376,0,1,0
0.6613226452905812,0.19525227785206764,-0.8654998428005284,1.0425454737795523,-0.3433419251716389,0.06787792226181945,0.6085510404246666,0.15256887748325643,0.1515145316813843,0,1,0
0.6813627254509018,0.17821984949811268,-0.8516214176977478,1.0362671950012878,-0.31391393891322356,0.07918986673552429,0.5655972236852431,0.15371427177451394,0.1526395680812895,0,1,0
0.7014028056112224,0.16152124702270668,-0.8349301237703004,1.0306066214283969,-0.28302867864455133,0.08962793530296122,0.5219034283718463,0.1543730973580202,0.15328665211070486,0,1,0
0.721442885771543,0.14520834470621585,-0.815645115824541,1.0255782068270727,-0.2514207300662074,0.09918418643523663,0.4778125566137709,0.15469242293232124,0.15360005580018665,0,1,0
0.7414829659318637,0.1293284408240545,-0.7939951941080666,1.0211862117559865,-0.21959975355430997,0.10785528588625164,0.4335549725507506,0.15455271679018207,0.15346403228135136,0,1,0
0.7615230460921844,0.11392356307461503,-0.7702438874719741,1.0174214089847353,-0.1882401385625518,0.1156455260744202,0.38951200940842656,0.15412321229194395,0.15303843408362802,0,1,0
0.781563126252505,0.09903063010067704,-0.7446466486968994,1.0142661070465977,-0.15776509690688384,0.12255931032329768,0.34568921244387474,0.1533972547304433,0.15232594459440296,0,1,0
0.8016032064128256,0.08468129914082262,-0.7174665479927215,1.0116942303391097,-0.12859383537440494,0.12860862390314956,0.30246567899259585,0.15234315774020266,0.15129851031145483,0,1,0
0.8216432865731462,0.07090175604727424,-0.6889771546774193,1.0096705634836398,-0.10118334277349193,0.13381593161265476,0.2603653854752578,0.1511900729355604,0.1501709604635836,0,1,0
0.8416833667334669,0.05771351861538562,-0.6594118715944306,1.0081573789956155,-0.07565922440121815,0.13820270991008338,0.21933891487143073,0.14984754600440672,0.1488584205132071,0,1,0
0.8617234468937875,0.04513324098187596,-0.6290138816754829,1.0071119201769696,-0.05227294093229301,0.1417939162528672,0.17956031713919415,0.1482183797367926,0.14727092786955817,0,1,0
0.8817635270541082,0.03317245471422565,-0.5980393133825157,1.00648370525549,-0.03141074607398328,0.14462377715396485,0.1414930450548806,0.14665981670310435,0.14575305102913272,0,1,0
0.9018036072144289,0.021839168390298164,-0.5666643161963741,1.0062248603066675,-0.012942247441127114,0.14672564420730394,0.10509335266695688,0.14498536452757102,0.1441206213482037,0,1,0
0.9218436873747494,0.011137361792876856,-0.5350903298710654,1.0062846772350067,0.002990846416962012,0.14813386003786375,0.0704107915279871,0.14332551712397906,0.14249976749034424,0,1,0
0.9418837675350701,0.001067773189367906,-0.5034794301754475,1.0066133705953615,0.016434668017738033,0.1488802709210133,0.0373205441574781,0.14196078371882015,0.14117260360731507,0,1,0
0.9619238476953907,-0.008370614048648781,-0.4719193619008344,1.0071702992816642,0.027846434315134064,0.14899551847674514,0.005762377786590937,0.14031962649016563,0.13957691690668375,0,1,0
0.9819639278557114,-0.01718280991944957,-0.4406097935400394,1.007907316518524,0.03685086184298851,0.1485165056403148,-0.023950641821517883,0.1386736957630002,0.13797999778279477,0,1,0
1.002004008016032,-0.025376426887118123,-0.4096808483834277,1.0087766473066366,0.043466539405631624,0.14748292687178088,-0.05167893842669591,0.13740144702263674,0.13674374376829831,0,1,0
1.0220440881763526,-0.03295981700376434,-0.37916950583231096,1.00974169704474,0.048252486905166786,0.14592405537522019,-0.07794357482803278,0.09250845226308148,0.0963096023921963,0,1,0
1.0420841683366733,-0.040123760856055034,-0.3581971926145347,1.0095526168812234,-0.00945400817582439,0.14740744458749297,0.07416946061363829,0.0809278418126102,0.08305749834070124,0,1,0
1.062124248496994,-0.04692666704454975,-0.340145309424736,1.0078473347478976,-0.085264106666297,0.15059328241867972,0.1592918915593402,0.10248557151836324,0.10336149451502748,0,1,0
1.0821643286573146,-0.053274316957678494,-0.3173824956564373,1.0052404091861267,-0.13034627808854404,0.15447690043840043,0.19418090098603505,0.11884534435350905,0.11858115323322978,0,1,0
1.1022044088176353,-0.059087445003785675,-0.290656402305359,1.0021939049135908,-0.15232521362678805,0.15814545696186977,0.18342782617346814,0.13195478185890194,0.13096474014926085,0,1,0
1.122244488977956,-0.06429508310892261,-0.2603819052568465,0.9990793593410587,-0.15572727862660676,0.1610185122699147,0.1436527654022449,0.1400437376225161,0.13860196772440955,0,1,0
1.1422845691382766,-0.06884717114818399,-0.2276044019630693,0.9961246317148085,-0.1477363813125141,0.16273552779781644,0.08585077639508841,0.14452782705819528,0.14284643937059013,0,1,0
1.1623246492985972,-0.07271206810227335,-0.19324484770446776,0.9934552342813322,-0.13346987167381416,0.16310594362033976,0.018520791126166017,0.14647070587127145,0.14471519955031023,0,1,0
1.1823647294589177,-0.07587422231758151,-0.15810771076540805,0.9911253433956932,-0.11649454428194755,0.16207165266147522,-0.05171454794322616,0.1461131319693022,0.1443775988727344,0,1,0
1.2024048096192383,-0.07833452094111043,-0.12301493117644594,0.9891241305877932,-0.1000606403950016,0.15964980619105548,-0.12109232352098732,0.14444251984489145,0.14280181138725864,0,1,0
1.222444889779559,-0.08010586332500487,-0.08856711919472224,0.9874044767181605,-0.08598269348163902,0.15591756889459385,-0.18661186482308134,0.14190645318603198,0.1404031619000505,0,1,0
1.2424849699398797,-0.08121073284633507,-0.05524347606650965,0.9858955459888823,-0.0754465364639083,0.15098624991900042,-0.24656594877967086,0.1392418657763253,0.13790092488194347,0,1,0
1.2625250501002003,-0.081677057116371,-0.02331621350179671,0.9845239486034392,-0.06857986927215634,0.14498710904276943,-0.2999570438115471,0.13663644611618075,0.13546423561900595,0,1,0
1.282565130260521,-0.08153664732226339,0.007020489705380047,0.9832187879837667,-0.06525803098362258,0.13805645554395723,-0.34653267494061046,0.13433884094144652,0.13333815469267907,0,1,0
1.3026052104208417,-0.08082341078306847,0.03566182695974564,0.9819187173066328,-0.06500353385669234,0.1303327381537716,-0.38618586950928097,0.13249461777983584,0.1316598656908152,0,1,0
1.3226452905811623,-0.07957223162498601,0.06255895790412272,0.9805759288630761,-0.06713942217783517,0.12194980421752899,-0.4191466968121297,0.1311083737503186,0.1304338881061145,0,1,0
1.342685370741483,-0.07781857347553667,0.0876829074724674,0.9791561509288933,-0.07098889670913827,0.1130368180154123,-0.4456493101058362,0.13022678750748928,0.1297033558383325,0,1,0
1.3627254509018036,-0.07559803326831202,0.11102701036123219,0.9776398551623626,-0.07581478832653615,0.10371541115235464,-0.4660703431528816,0.12978420017697997,0.129403685419775,0,1,0
1.3827655310621243,-0.07294639095113017,0.1325821158590926,0.9760202508410345,-0.08098021606640524,0.09410053837868136,-0.4807436386836638,0.12965538849929523,0.12941034757563372,0,1,0
1.4028056112224447,-0.0698998518953581,0.15232695278860311,0.9742995303751117,-0.08603602329613508,0.08430103165631116,-0.4899753361185095,0.13006939621516134,0.1299463575699433,0,1,0
1.4228456913827654,-0.0664942278794905,0.17028120079338038,0.9724954701963945,-0.090203008935863,0.07441477956230236,-0.49431260470043964,0.13062356455037605,0.13061692844088021,0,1,0
1.442885771543086,-0.06276597532932662,0.18641262750819343,0.9706296168338066,-0.09329266812939871,0.06453503736076445,-0.4939871100768962,0.1315040201648787,0.1315982154211137,0,1,0
1.4629258517034067,-0.058751540003699455,0.20072176628135827,0.9687325910070981,-0.09485129133542267,0.054742455852247074,-0.4896290754258687,0.13241264728043808,0.13260546773527998,0,1,0
1.4829659318637274,-0.05448782794842108,0.2131856027639186,0.9668354410031298,-0.09485750019841202,0.04511579316253212,-0.48133313448574794,0.1334524834726326,0.1337367599700635,0,1,0
1.503006012024048,-0.05001174067671384,0.2238043635853623,0.9649725924224871,-0.09314242903213504,0.03572794936826093,-0.46939218971355906,0.13436237655208627,0.13473173660135915,0,1,0
1.5230460921843687,-0.045360305637438036,0.23257175196378999,0.9631741183141528,-0.08992370541671493,0.026646616131818193,-0.4540666618221364,0.15724818913626668,0.16139901880242233,0,1,0
1.5430861723446894,-0.0405448945894745,0.24077055239817677,0.9621751284891954,-0.049949491247870376,0.02089637359154076,-0.28751212701387185,0.15267405999049039,0.15485874195606097,0,1,0
1.56312625250501,-0.03561289442411046,0.24660000826820205,0.9618115584903465,-0.01817849994244336,0.016899770534413702,-0.19983015285635267,0.14634735180477318,0.14760996092399672,0,1,0
1.5831663326653307,-0.030594820005399252,0.25090372093556035,0.9618823236463815,0.003538257801751387,0.013917082901496642,-0.14913438164585316,0.1418043346666273,0.14246444409978765,0,1,0
1.6032064128256511,-0.025510599263781505,0.2542110370808873,0.9622438059229397,0.018074113827908737,0.011465222473129488,-0.12259302141835768,0.1381627622987112,0.13843392852821576,0,1,0
1.6232464929859718,-0.020374455890905377,0.2568071686438065,0.9627822572385797,0.0269225657820003,0.009232496329382955,-0.11163630718732669,0.13535192153580317,0.1353851861751153,0,1,0
1.6432865731462925,-0.015197497330163293,0.2588479280371042,0.9634108230611532,0.03142829112867914,0.007028367414267448,-0.11020644575577526,0.1333071893126684,0.13320191019663466,0,1,0
1.6633266533066131,-0.00998930825510555,0.26040945375288715,0.964066869595873,0.0328023267359851,0.004741973041370385,-0.1143197186448532,0.1317176522688689,0.13154545635472994,0,1,0
1.6833667334669338,-0.004758967542436388,0.26151703563345813,0.9647023514122084,0.03177409081677029,0.0023198605166524183,-0.12110562623589828,0.13077426814449247,0.13057644434968554,0,1,0
1.7034068136272544,0.00048444679041488147,0.2621707166425635,0.9652890097893831,0.029332918858736724,-0.0002583382245533252,-0.12890993706028717,0.1302036098367775,0.13001345633610328,0,1,0
1.723446893787575,0.005731503005412362,0.26235281074987404,0.9658101323019032,0.026056125625998676,-0.002986330817419457,-0.1363996296433066,0.12997988483440237,0.12981679067339943,0,1,0
1.7434869739478958,0.010972260591166585,0.2620378792877111,0.9662595675126749,0.022471760538589708,-0.005842318181830838,-0.14279936822056902,0.13000713011567247,0.12988122538153823,0,1,0
1.7635270541082164,0.016196224969497908,0.2611982189165662,0.9666387293051037,0.018958089621442457,-0.008796417866378671,-0.14770498422739156,0.13015131073273944,0.1300708430687616,0,1,0
1.783567134268537,0.021392392868767835,0.2598083949634964,0.9669525855568664,0.015692812588129,-0.011812179053337125,-0.1507880593479229,0.13044285426688132,0.1304091607615654,0,1,0
1.8036072144288577,0.026549328766717204,0.2578467948974684,0.9672104501577851,0.012893230045933912,-0.014852118520464922,-0.15199697335638995,0.13080461608171984,0.13081705106653546,0,1,0
1.8236472945891782,0.03165529254434313,0.25529818888129613,0.9674236613665853,0.010660560440011561,-0.0178793084449164,-0.1513594962225738,0.13101133680338428,0.13106975021967382,0,1,0
1.8436873747494988,0.036698463862970765,0.25215856593138186,0.9675989129694966,0.008762580145564025,-0.020856979543422728,-0.14888355492531616,0.13145122532492268,0.1315453447363477,0,1,0
1.8637274549098195,0.041666924224165985,0.24842301805976108,0.9677496117400598,0.007534938528160546,-0.023756618648769202,-0.14498195526732383,0.13185388085458066,0.1319883844206105,0,1,0
1.8837675350701402,0.04654890262416306,0.24409891999985361,0.9678880841344133,0.006923619717675137,-0.02654599932614632,-0.13946903386885545,0.13240934266803647,0.13259370831517278,0,1,0
1.9038076152304608,0.051332762683535815,0.239193002968638,0.9680312820132254,0.00715989394060661,-0.029185345329339835,-0.13196730015967595,0.1325396451936276,0.1327633131807175,0,1,0
1.9238476953907815,0.056007555313357986,0.23373963149110852,0.9681833673374329,0.007604266210373365,-0.03164336744346061,-0.12290110570603932,0.13261099020383085,0.13286547759288486,0,1,0
1.9438877755511021,0.060562964277101124,0.22777044818715683,0.968346612339163,0.008162250086502558,-0.03389559216881958,-0.1126112362679481,0.1330052491140172,0.13326600819305762,0,1,0
1.9639278557114228,0.06498909367109426,0.22130646969965662,0.9685324815630832,0.009293461196015096,-0.03593720547964381,-0.1020806655412116,0.13329511361425897,0.1335637185519378,0,1,0
1.9839679358717435,0.06927691849516324,0.21439124120344896,0.9687493624634727,0.010844045019471015,-0.037762135270157926,-0.09124648952570599,0.13340925644013224,0.1336837507921032,0,1,0
2.004008016032064,0.07341840617793963,0.2070743841388193,0.9690004111735454,0.012552435503635745,-0.039365876786215774,-0.08018707580289222,0.13333831942124738,0.13362887478637872,0,1,0
2.024048096192385,0.07740657695628485,0.19940853891726085,0.969283467335827,0.014152808114080598,-0.040735788436434446,-0.06849558251093367,0.16812755220896142,0.1650303992524468,0,1,0
2.0440881763527052,0.08119667244721279,0.1895047745463972,0.9705781012953469,0.06473169797599418,-0.04458224913133529,-0.19232303474504203,0.1436540255713077,0.14236640582787283,0,1,0
2.064128256513026,0.08481056503212582,0.18069462924565155,0.9721853166220599,0.0803607663356441,-0.049455129021856906,-0.24364399452608093,0.1420336550867198,0.14158768239571787,0,1,0
2.0841683366733466,0.08823373122160692,0.17115830947405522,0.974068614490143,0.09416489340416098,-0.0546799347272061,-0.26124028526746035,0.13933444819467608,0.13951953801706524,0,1,0
2.1042084168336674,0.09144939962093386,0.16078341996634693,0.9761562305634737,0.10438080366653137,-0.059751398807483376,-0.2535732040138637,0.1374800558853663,0.13805697378209272,0,1,0
2.124248496993988,0.09443890841796698,0.14947543985165584,0.9783977855651834,0.1120777500854876,-0.06435624854457275,-0.23024248685446716,0.13587452912075126,0.1366866074983455,0,1,0
2.1442885771543083,0.09718444960363531,0.1372770592834165,0.9807479490140725,0.1175081724444538,-0.06830691040217432,-0.19753309288008,0.13435191541634975,0.13529076432391868,0,1,0
