time,x,x_dot,z,z_dot,theta,theta_dot,u1,u2,x_ref,z_ref,theta_ref
0.0,0.8112085533806241,-0.08455464135765137,0.7725697559186377,0.024370096449226608,0.17361136331574561,-0.0830106426122447,0.29668288664064135,0.29602700141383564,0,1,0
0.02004008016032064,0.8110357477021243,-0.008640283924992928,0.7777856209487529,0.26079325150575916,0.17142788070457446,-0.10917413055856091,0.114447032292292,0.058365754526653324,0,1,0
0.04008016032064128,0.8113053648536727,0.013480857577416589,0.7815979275142272,0.19061532827371092,0.12438142031990522,-2.352323019233462,0.07077308273898145,0.05632337490630154,0,1,0
0.06012024048096192,0.8118959298041407,0.029528247523403904,0.7833419125842789,0.08719925350258205,0.06591415678586703,-2.9233631767019097,0.0655956414725068,0.056323374910207696,0,1,0
0.08016032064128256,0.8127100586566862,0.04070644262727345,0.7829566280014234,-0.019264229142772732,0.00022526615081047306,-3.2844445317528277,0.07212555935536309,0.0699318316746272,0,1,0
0.1002004008016032,0.8136621263463454,0.04760338448295717,0.780751649320798,-0.11024893403127002,-0.0669896692679737,-3.3607467709392096,0.1852533184133946,0.18638849054659717,0,1,0
0.12024048096192384,0.8146145811884334,0.047622742104400415,0.7801344508921446,-0.030859921432670356,-0.13306403177700626,-3.303718125451626,0.1905692152613553,0.19648095654408798,0,1,0
0.1402805611222445,0.8151823941665771,0.02839064890718216,0.781318989505486,0.059226930667065136,-0.19419182900682985,-3.0563898614911804,0.28431273535484225,0.2911258070212422,0,1,0
0.16032064128256512,0.8146186947125227,-0.028184972702722105,0.7870321728663167,0.28565916804153324,-0.2496809823060856,-2.7744576649627897,0.28434249184592264,0.2941483397822499,0,1,0
0.18036072144288576,0.8124017465017482,-0.11084741053872384,0.7972286216706141,0.5098224402148737,-0.2971699780568002,-2.3744497875357236,0.28551159363615425,0.2966828863574717,0,1,0
0.2004008016032064,0.8080562785726164,-0.21727339645659013,0.8118503076028623,0.7310842966124058,-0.3356038157751022,-1.9216918859151009,0.28529648892936416,0.2966828866690039,0,1,0
0.22044088176352705,0.8011923083929844,-0.3431985089816002,0.8307753841353759,0.946253826625684,-0.3648454288221004,-1.4620806523499188,0.28497908038261266,0.2966828863431605,0,1,0
0.24048096192384769,0.7915013687903558,-0.48454698013143027,0.8538865549956843,1.155558543015423,-0.38467040368733174,-0.9912487432615568,0.24887102300154357,0.26074904865275406,0,1,0
0.2605210420841683,0.7791340454666112,-0.6183661661872306,0.8800890522714583,1.3101248637886964,-0.39496324417251494,-0.514642024259161,0.1957268608431684,0.20627868255689327,0,1,0
0.280561122244489,0.7645560747208336,-0.7288985372888789,0.9078406319557977,1.387578984216967,-0.396802602462875,-0.09196791451801328,0.15397962877241836,0.16256109722534387,0,1,0
0.3006012024048096,0.7482036497642938,-0.8176212478269934,0.9359436641910376,1.405151611761998,-0.39177519078800166,0.25137058374366855,0.12300025003091311,0.1300054223946534,0,1,0
0.32064128256513025,0.730436989893803,-0.8883329935245389,0.9635246637659585,1.379049978746042,-0.38114874496786355,0.5313222910069133,0.10068000928517105,0.10613412939806975,0,1,0
0.3406813627254509,0.711537965841953,-0.944951202592503,0.9899591721555581,1.3217254194799788,-0.36617226742012815,0.7488238773867699,0.0813539099169199,0.08569432472550666,0,1,0
0.3607214428857715,0.6917580370568543,-0.9889964392549309,1.0147153655601187,1.2378096702280326,-0.3477448004081312,0.9213733505998492,0.0686806389170249,0.07182989014173546,0,1,0
0.3807615230460922,0.6712736854897631,-1.0242175783545635,1.0374440099139663,1.1364322176923862,-0.3268266849972928,1.0459057705419172,0.05696404509938509,0.059190855900216686,0,1,0
0.4008016032064128,0.6502443759760222,-1.0514654756870394,1.057824465572092,1.0190227829062868,-0.3041617478772951,1.1332468559998816,0.0563233757471708,0.05807199542043176,0,1,0
0.42084168336673344,0.6287124432407379,-1.0765966367642128,1.0758497797492799,0.9012657088593842,-0.2801369542330584,1.2012396822118385,0.05632337530515878,0.05750172547011905,0,1,0
0.4408817635270541,0.6067168862419929,-1.0997778499372513,1.0915293209282069,0.7839770589463492,-0.2552120601573608,1.246244703784876,0.056323374953026535,0.05706718050968243,0,1,0
0.4609218436873747,0.5842982315944544,-1.1209327323769263,1.104873752073477,0.6672215572635087,-0.22973709687034374,1.2737481643508544,0.05632337497264642,0.05668945798601863,0,1,0
0.48096192384769537,0.5614982386535514,-1.139999647045146,1.115893616031377,0.5509931978950009,-0.2040157015826159,1.2860697643863932,0.05632337490684408,0.05641097661630006,0,1,0
0.501002004008016,0.5383592541689888,-1.1569492242281327,1.1245997594869563,0.43530717277896613,-0.17827128934748585,1.2872206117565013,0.05632337797938476,0.05632337504634285,0,1,0
0.5210420841683366,0.5149235503796824,-1.171785189465319,1.1310045589751592,0.32023997441013907,-0.15257398557209476,1.2848651887695555,0.056397634870608386,0.05632337492077249,0,1,0
0.5410821643286573,0.49123324194066276,-1.1845154219509826,1.135121485597247,0.20584633110438272,-0.12698304153588055,1.2795472018107088,0.05657542297075516,0.05632337651887716,0,1,0
0.561122244488978,0.4673304689725732,-1.1951386484044793,1.1369643037160273,0.09214090593901636,-0.10164033724989723,1.267135214299168,0.05675040178002955,0.05632337725577472,0,1,0
0.5811623246492986,0.443257593137561,-1.2036437917506073,1.1365455598709366,-0.02093719225453035,-0.0766851071549568,1.2477615047470225,0.05691044955388883,0.056323374957967964,0,1,0
0.6012024048096192,0.41905694712333164,-1.2100323007114706,1.1338764347831194,-0.13345625439086395,-0.052244264748533296,1.2220421203211747,0.057024519464621296,0.056324090012468644,0,1,0
0.6212424849699398,0.3947705841060823,-1.2143181508624676,1.1289663480525316,-0.24550433652939474,-0.02840704541426658,1.1918609667133355,0.05717123227410738,0.05632405315786879,0,1,0
0.6412825651302605,0.3704399164665293,-1.2165333819776483,1.1218241733074774,-0.3571087372527143,-0.0052891751263812875,1.1558935143942644,0.057334314469469926,0.05632342627868422,0,1,0
0.6613226452905812,0.3461055658774699,-1.2167175294529708,1.1124580955890753,-0.468303885920109,0.016980328968833,1.1134752047607144,0.07834571009580846,0.07727136198942403,0,1,0
0.6813627254509018,0.32180386928345434,-1.2150848297007761,1.1014946852536822,-0.5481705167696567,0.038352914856123445,1.068629294364522,0.10240795819698748,0.10115574264189889,0,1,0
0.7014028056112224,0.29759873572716306,-1.210256677814564,1.0896470609078337,-0.5923812172924299,0.058688587524142966,1.0167836334009757,0.12246688006744685,0.12100965546236524,0,1,0
0.721442885771543,0.2735773658958175,-1.201068491567278,1.0775060931952474,-0.6070483856293187,0.07782591142709704,0.9568661951477039,0.138641729241462,0.1370193566725416,0,1,0
0.7414829659318637,0.24984061365814988,-1.1868376118833799,1.0655447461532057,-0.5980673521020781,0.09563561559181467,0.8904852082358827,0.15153389474531792,0.14978768505274356,0,1,0
0.7615230460921844,0.22649515401620005,-1.1672729820974923,1.0541361968062857,-0.5704274673460044,0.11202163836039121,0.8193011384288266,0.16136180137725833,0.1595340753795089,0,1,0
0.781563126252505,0.203646595248118,-1.1424279384041012,1.0435609209102263,-0.5287637948029681,0.12692182773805316,0.7450094688830983,0.16825213784659362,0.16638022184715429,0,1,0
0.8016032064128256,0.18139351421010308,-1.1126540519007473,1.0340111988779264,-0.4774861016149965,0.14030384977416527,0.6691011018056064,0.17309984363457323,0.17121629946224767,0,1,0
0.8216432865731462,0.15982547937752084,-1.0784017416291123,1.0256183155222456,-0.41964416778403474,0.15216130263353944,0.5928726429687076,0.1758366085707569,0.17397035824178095,0,1,0
0.8416833667334669,0.13901938238720868,-1.0403048495156078,1.0184513176680494,-0.35834989270980727,0.16251075025633346,0.5174723811397003,0.1767485860198316,0.17492849881468664,0,1,0
0.8617234468937875,0.11903795401671603,-0.9990714185246323,1.0125261951445652,-0.29625612617420966,0.1713916420944465,0.4440445919056525,0.1768015763735096,0.17504204410620902,0,1,0
0.8817635270541082,0.09993253177335018,-0.9552711121682927,1.0078345712970171,-0.234581192377401,0.17885470410541227,0.373153100548287,0.17524303921011167,0.1735601036710639,0,1,0
0.9018036072144289,0.081738757071588,-0.9096887350881091,1.0043221350403835,-0.17562181283168002,0.1849632568377397,0.3054276366163697,0.17255650331005556,0.1709602212284047,0,1,0
0.9218436873747494,0.0644783933832354,-0.86301818441763,1.0019030673179266,-0.12095338612285175,0.18978842831170342,0.24125857369818554,0.16895115929990148,0.16745833857373432,0,1,0
0.9418837675350701,0.04816045216539587,-0.8158970608919761,1.0004664563547483,-0.07183054815891378,0.19341456567895207,0.1813068683624318,0.16517290864539944,0.16379036266545913,0,1,0
0.9619238476953907,0.03278565441958284,-0.7687398872906517,0.9998979576803602,-0.028424933719406624,0.19593124666910325,0.12583404950756039,0.16107378210792472,0.1597894340924577,0,1,0
0.9819639278557114,0.018346298487226787,-0.7219677966178025,1.0000751567820247,0.008859955083234457,0.19741818580867074,0.07434695697837408,0.15714393707750537,0.15596423657502456,0,1,0
1.002004008016032,0.004829885049854706,-0.6758206718686041,1.0008819993601672,0.040342128907125324,0.1979600875987716,0.027095089505041567,0.15305480379028763,0.15197265993363396,0,1,0
1.0220440881763526,-0.007782060070128879,-0.6305972559991793,1.0021989103208664,0.06584554803496011,0.1976358291629373,-0.016212921791717676,0.10679661588905767,0.11020429051836021,0,1,0
1.0420841683366733,-0.019745259390931805,-0.5981599660401463,1.0027461418138044,0.027361574646897403,0.20003797389971106,0.12010723683869082,0.08598757462942704,0.08749575263608592,0,1,0
1.062124248496994,-0.03118850926407469,-0.5721624936571441,1.0018927655111567,-0.042668815132386094,0.20364450503304352,0.1803265566666207,0.1091894871630347,0.10965781046225691,0,1,0
1.0821643286573146,-0.04197310924502384,-0.5392299990474578,1.000297993548803,-0.07973859811768197,0.20762228686164813,0.19888909143023323,0.1245631700988754,0.12392110560836724,0,1,0
1.1022044088176353,-0.0519998834605023,-0.501338710773923,0.9983903721244578,-0.09538107121725754,0.21108260602622209,0.17301595822870192,0.1379168091219517,0.13658646670770414,0,1,0
1.122244488977956,-0.06117625507255167,-0.4588185806024684,0.9965444332511806,-0.09229694366386232,0.21347541042349008,0.11964021986339995,0.14568330594020643,0.14391840773295403,0,1,0
1.1422845691382766,-0.06944293217059858,-0.41333385490234503,0.9949758312357538,-0.07843010077134001,0.21445415703294793,0.04893733047289403,0.14967668151032756,0.14770289294680708,0,1,0
1.1623246492985972,-0.07676684844058905,-0.3661958134995234,0.9937946300348285,-0.05906006004626647,0.2138530522328355,-0.030055240005623013,0.15045842191907893,0.148427013171864,0,1,0
1.1823647294589177,-0.08314040572729986,-0.31867786433554074,0.993021224716293,-0.03867026592677841,0.2116273160654605,-0.11128680836874848,0.14872279408546282,0.14676162841097626,0,1,0
1.2024048096192383,-0.0885781947985754,-0.27188945356377686,0.9926064651908744,-0.020737976270929832,0.20783462998961247,-0.18963430379240487,0.1455472127416797,0.14373495922644053,0,1,0
1.222444889779559,-0.09311023906494373,-0.22660221331841635,0.9924621783124155,-0.007214343922947597,0.20259576105636815,-0.2619434466622137,0.1417240525437616,0.14008877361045477,0,1,0
1.2424849699398797,-0.09677635846735785,-0.18330597012070654,0.9924831918208351,0.0010506754209839864,0.19605397585395487,-0.3270892601206628,0.1376887471239512,0.13626704797266734,0,1,0
1.2625250501002003,-0.09962236469656939,-0.1423003114605766,0.9925597815212752,0.0038294850220029976,0.1883818008931996,-0.3836087480377671,0.13398509818245855,0.1327733933887829,0,1,0
1.282565130260521,-0.10169592307644378,-0.10367791899371959,0.9925925704473791,0.0016394463051981633,0.17974878285736495,-0.43165090179172916,0.1307850052318189,0.1297754899260987,0,1,0
1.3026052104208417,-0.10304476094469925,-0.06744189341277344,0.9924971941992502,-0.004768812406449144,0.1703180702462579,-0.4715356305553546,0.12825058884015297,0.1274291835487429,0,1,0
1.3226452905811623,-0.10371524610885316,-0.033524258207695765,0.9922087204889907,-0.014423685512975275,0.16024136472703035,-0.5038352759613748,0.12643116783669087,0.12578468134134835,0,1,0
1.342685370741483,-0.10375184888531433,-0.0018301388230586649,0.9916829528562586,-0.02628838163660001,0.14965961923290988,-0.5290872747060261,0.1252379064698182,0.1247511730996542,0,1,0
1.3627254509018036,-0.1031974974815651,0.027717570187460877,0.9908937120280105,-0.03946204141240995,0.1387014531725328,-0.547908303018854,0.12467331860401504,0.1243328653993733,0,1,0
1.3827655310621243,-0.10209357817821478,0.05519596516751621,0.9898328777015081,-0.05304171632512023,0.12748451068979935,-0.5608471241366714,0.12464102713502169,0.12443488463029938,0,1,0
1.4028056112224447,-0.10048043884359506,0.0806569667309863,0.9885075329717491,-0.06626723648794992,0.11611667092352224,-0.5683919883138563,0.12509576295911704,0.1250131946264179,0,1,0
1.4228456913827654,-0.09839763257528637,0.10414031341543428,0.9869386078759351,-0.07844625479069926,0.10469704414182104,-0.5709813390850597,0.12586739499066354,0.12589841485753853,0,1,0
1.442885771543086,-0.09588458302067243,0.1256524777306968,0.9851558486266074,-0.08913796246638435,0.0933165836516814,-0.5690230245069824,0.12688147365688304,0.1270162065248946,0,1,0
1.4629258517034067,-0.09298076030342085,0.14519113586257903,0.9831955857459249,-0.09801314403412358,0.08205818743937326,-0.5629198106154067,0.1281248095595037,0.12835108098700304,0,1,0
1.4829659318637274,-0.08972561227761554,0.1627574012902658,0.981100276998768,-0.10476543735784344,0.07099487367315606,-0.5531656883108594,0.12944339434588506,0.1297556020524941,0,1,0
1.503006012024048,-0.08615882371244472,0.17833942825854082,0.9789140329803809,-0.10931220091935548,0.060195057314243676,-0.5399908179456193,0.13076511468558338,0.1311545603611681,0,1,0
1.5230460921843687,-0.08232023599842095,0.19192938570118842,0.9766804205293385,-0.11168062255212437,0.04972008462074134,-0.5237486346751169,0.15515317716759697,0.15844064672503105,0,1,0
1.5430861723446894,-0.07820591364991732,0.20571611742518164,0.9751664117668674,-0.0757004381235547,0.041887712267383685,-0.3916186176678835,0.14862623980585699,0.1504920760525711,0,1,0
1.56312625250501,-0.07387536631119758,0.2165273669359867,0.9741597859151931,-0.05033129258371349,0.03555668286690793,-0.3165514700237879,0.1439777478570263,0.14514376278979613,0,1,0
1.5831663326653307,-0.06936968914860166,0.22528385812979582,0.9735136688901297,-0.03230585125317266,0.030165114818959494,-0.2695784023974217,0.14049086203069405,0.14119302468702144,0,1,0
1.6032064128256511,-0.06472008674156035,0.2324801203520654,0.9731186433184005,-0.019751278586460346,0.025340744746181147,-0.2412185036389172,0.13790135358018632,0.13830447432020457,0,1,0
1.6232464929859718,-0.059951656816953816,0.2384214962303266,0.9728940841353931,-0.011227959150369492,0.02084365799025883,-0.2248543377961158,0.1359689846638632,0.13618616260907257,0,1,0
1.6432865731462925,-0.055085791034774484,0.2432932891089667,0.9727803810979468,-0.005685151872314154,0.016524718454520384,-0.21594697678692232,0.13447799935636523,0.13459171198154923,0,1,0
1.6633266533066131,-0.05014168392230036,0.2472053556237063,0.9727321432143206,-0.0024118941813128826,0.012300949451570188,-0.21118845014751014,0.1335163356195364,0.13357521365662278,0,1,0
1.6833667334669338,-0.04513712603140827,0.2502278945446046,0.972720325064929,-0.0005909074695761947,0.00812837508222523,-0.20862871846724781,0.13291209091667644,0.1329546063293324,0,1,0
1.7034068136272544,-0.04008912427530345,0.2524000878052411,0.9727269866307864,0.00033307829286720564,0.003993847221401723,-0.20672639304117538,0.13254859928674306,0.1325953132820063,0,1,0
1.723446893787575,-0.03501425183736113,0.25374362189711597,0.9727415697226416,0.0007291545927625773,-9.931836760361155e-05,-0.20465827945026677,0.13230282404548194,0.13236687761063276,0,1,0
1.7434869739478958,-0.02992880951112784,0.2542721163116645,0.9727571395330532,0.000778490520582723,-0.004137296841184605,-0.2018989236790497,0.132245413255694,0.13233686614178983,0,1,0
1.7635270541082164,-0.02484885931436255,0.2539975098382643,0.97277243117365,0.000764582029840768,-0.008098231008855516,-0.19804670838354557,0.13231530052833862,0.13243700978264056,0,1,0
1.783567134268537,-0.01979023281099945,0.25293132516815503,0.9727899303537157,0.0008749590032876345,-0.01195800222965399,-0.1929885610399239,0.1323926790536496,0.1325494754325906,0,1,0
1.8036072144288577,-0.014768462570632033,0.25108851201837085,0.9728123522439476,0.0011210945115887818,-0.01568865355141966,-0.18653256608828334,0.13256407348480012,0.1327516749315623,0,1,0
1.8236472945891782,-0.00979871953086356,0.24848715198842358,0.9728450743502983,0.001636105317538895,-0.019265683528821454,-0.17885149887008975,0.13277012820529732,0.132986302735738,0,1,0
1.8436873747494988,-0.004895706011619855,0.2451506759621853,0.9728944115634138,0.0024668606557768018,-0.022666401558618283,-0.17003590148984124,0.13298822098637836,0.13323169730019707,0,1,0
1.8637274549098195,-7.3555665586633e-05,0.24110751730166108,0.9729669665020637,0.003627746932493194,-0.025869156493991703,-0.1601377467686708,0.13304088626660251,0.133309690506204,0,1,0
1.8837675350701402,0.0046543742527526705,0.23639649591696518,0.9730643702714424,0.004870188468933391,-0.02885389663115284,-0.1492370068580569,0.13320028106641235,0.13348457140727513,0,1,0
1.9038076152304608,0.009275432797493651,0.23105292723704904,0.9731912424773272,0.006343610294239273,-0.03160846136968717,-0.1377282369267165,0.13332027307494365,0.13362061167375597,0,1,0
1.9238476953907815,0.013777847917652759,0.22512075600795542,0.9733510233844381,0.007989045355545022,-0.03412024898390322,-0.12558938071080272,0.1333876812822748,0.1336978122999225,0,1,0
1.9438877755511021,0.018150801491281936,0.21864767868145885,0.9735454933441555,0.009723497985869389,-0.0363816707735353,-0.11307108948160387,0.13339816890357767,0.13371597504111019,0,1,0
1.9639278557114228,0.022384494995831308,0.21168467522746856,0.9737747169821928,0.011461181901860552,-0.03838683460472187,-0.10025819155932858,0.13348419371550913,0.13380934660046434,0,1,0
1.9839679358717435,0.026470047374474386,0.20427761893215393,0.9740410022399171,0.013314262886216217,-0.04013011169257353,-0.0871638543925834,0.13339778302289548,0.13372144791062027,0,1,0
2.004008016032064,0.03039979046716788,0.19648715463467475,0.9743414375039468,0.015021763201485273,-0.04161294108145763,-0.07414146944420473,0.13328529610542145,0.13360697464016227,0,1,0
2.024048096192385,0.034167139993652756,0.18836747632424383,0.9746723612710959,0.01654618835745625,-0.04283715371066705,-0.06121063146047077,0.1651535406422408,0.16245691711212,0,1,0
2.0440881763527052,0.037728996100703675,0.1780928053525458,0.9759322568687877,0.06299477988458732,-0.046217624229462545,-0.1690235259397749,0.1445129134580482,0.1435366558468392,0,1,0
2.064128256513026,0.04110471702796292,0.16878604636296252,0.9775344403874036,0.08010917593079074,-0.050375934895142846,-0.20791553328401527,0.14219950818249932,0.14194147561870082,0,1,0
2.0841683366733466,0.04428274917304423,0.15890160725406544,0.9794201036578501,0.094283163522328,-0.05473665151680515,-0.21803583108311475,0.13878196512375968,0.1390336321535879,0,1,0
2.1042084168336674,0.04725052021874833,0.14838855228520498,0.98149454501341,0.10372206777799729,-0.05889178722168626,-0.20775678524405664,0.13609686388585532,0.1366662383511714,0,1,0
2.124248496993988,0.049994410397455724,0.13719450893536989,0.9836819091962207,0.10936820914052887,-0.0625874125718605,-0.18478126750871063,0.1339453019686316,0.13469523516054124,0,1,0
2.1442885771543083,0.05250147472634479,0.12535321644445335,0.9859201767082383,0.11191337560087952,-0.0656795926593604,-0.1546090043749953,0.13208773484617892,0.1329321725765996,0,1,0
