time,x,x_dot,z,z_dot,theta,theta_dot,u1,u2,x_ref,z_ref,theta_ref
0.0,0.5479120971119267,-0.012224312049589542,1.3585979199113825,0.039473605811872786,-0.1623290608449402,0.09512447032735119,0.056323374907497344,0.09715348388813615,0,1,0
0.02004008016032064,0.5473003407257901,-0.03058781930682778,1.3577105740949924,-0.04436729081950573,-0.12776415154032408,1.728245465230805,0.06826299800786857,0.05632337910795492,0,1,0
0.04008016032064128,0.5463907995691906,-0.0454770578299813,1.3547254357853165,-0.1492569154837965,-0.10282067330519591,1.2471739117564085,0.07934914067168986,0.056323374984406135,0,1,0
0.06012024048096192,0.54522599642257,-0.05824015733102919,1.3498166387169415,-0.24543985341875374,-0.09633691888648993,0.3241877209352986,0.06443451017577878,0.056323374908880036,0,1,0
0.08016032064128256,0.5438787373540717,-0.06736295342491644,1.3427723165789687,-0.3522161068986381,-0.09634880433897972,-0.0005942726244879126,0.07148691970534123,0.05632337493698819,0,1,0
0.1002004008016032,0.5423508120261316,-0.07639626639700277,1.3337003568890988,-0.4535979844934881,-0.10849151559855916,-0.6071355629789721,0.06586944143390429,0.056323375522510724,0,1,0
0.12024048096192384,0.5406505242599773,-0.08501438830771234,1.3225208611793453,-0.5589747854876733,-0.12825490457419642,-0.9881694487818633,0.057289482347678174,0.05632337490495215,0,1,0
0.1402805611222445,0.5387701159505098,-0.09402041547337303,1.3091086232603648,-0.6706118959490285,-0.14875959367708727,-1.0252344551445434,0.05632339083109361,0.056502235020101835,0,1,0
0.16032064128256512,0.5366784410089848,-0.10458374707625298,1.293452143175022,-0.7828240042671316,-0.16908801606363297,-1.0164211193272796,0.09404913216574279,0.09506022233639858,0,1,0
0.18036072144288576,0.5341745285520545,-0.12519562284651536,1.2766687584846792,-0.8391692345171506,-0.18857494091153781,-0.9743462423952454,0.05632337490543206,0.06009967965357881,0,1,0
0.2004008016032064,0.5313840658700502,-0.13952313410021505,1.2576903807068776,-0.9489188888900821,-0.2050106169178011,-0.821783800313162,0.05632337492824063,0.06508061027831046,0,1,0
0.22044088176352705,0.5282608165987546,-0.15616246356478047,1.2365884407400674,-1.0550969983405127,-0.21441749756611947,-0.4703440324159233,0.12605195208746836,0.129040709435745,0,1,0
0.24048096192384769,0.5243733806851923,-0.19437179567811363,1.2153013987175685,-1.0643521011249422,-0.221422413043966,-0.35024577389232325,0.29202107281549894,0.29668288655672204,0,1,0
0.2605210420841683,0.518636665050664,-0.28683578172641927,1.1986516328825847,-0.8324882917491947,-0.2246904023425313,-0.1633994649282644,0.23551546231289003,0.24172095886514894,0,1,0
0.280561122244489,0.5113558467076492,-0.36404091715073905,1.1850044736331764,-0.68235796247041,-0.22299097932700374,0.08497115077637957,0.2938011937168145,0.29668288666780335,0,1,0
0.3006012024048096,0.502136283042425,-0.4609781832612111,1.175984693013696,-0.4509890309740195,-0.21898768033958335,0.20016494937101917,0.2724704633541918,0.280749303506566,0,1,0
0.32064128256513025,0.49111635991886454,-0.5509961561780217,1.1710497038630197,-0.2467494575338124,-0.20836520599741895,0.5311237171082217,0.2314778716809956,0.2317538285116058,0,1,0
0.3406813627254509,0.47861971302388245,-0.6248323447491051,1.16889984233638,-0.10749307633198726,-0.19753499010353012,0.5415107946944399,0.11290343304733112,0.11687986025314145,0,1,0
0.3607214428857715,0.46543520714986214,-0.6592252937010145,1.1661633566362406,-0.13682428500696128,-0.18353717492238564,0.6998907590572269,0.07037804396390085,0.07247095468583457,0,1,0
0.3807615230460922,0.45185302403535277,-0.6791091557254685,1.1615856608665043,-0.2288847884868164,-0.16788423099892014,0.7826471961732746,0.13026730551495488,0.13185873939057494,0,1,0
0.4008016032064128,0.43758074946662456,-0.71361372843641,1.156912376888808,-0.2336641988848137,-0.1509806188824005,0.845180605825982,0.07460367640843309,0.07538120095998223,0,1,0
0.42084168336673344,0.4229571777335583,-0.7311785866533136,1.1505163968803238,-0.31979900042420945,-0.13348002816125443,0.875029536057301,0.12591716344803155,0.12654046463412655,0,1,0
0.4408817635270541,0.4077920995259211,-0.7582539103818605,1.1439071828463432,-0.3304607016990337,-0.11550712414784742,0.8986452006703498,0.06876892607238251,0.06922768297290002,0,1,0
0.4609218436873747,0.3923771120535626,-0.7707493736179232,1.1354138383871057,-0.42466722296186965,-0.09719457322220856,0.9156275462819431,0.10116239601712404,0.10070294497970475,0,1,0
0.48096192384769537,0.3766406409811479,-0.7868235536207345,1.1259839376000798,-0.4714950393512973,-0.07927758551852267,0.8958493851842956,0.12281003401590049,0.12247801914620891,0,1,0
0.501002004008016,0.3605756676138486,-0.8032486683649649,1.1162652468751575,-0.4859345362461131,-0.06165334140606171,0.8812122056230473,0.14440126231064476,0.1441607518510458,0,1,0
0.5210420841683366,0.3441970554172212,-0.8189306098313724,1.1069031960185007,-0.4681025428328334,-0.04424799973360751,0.87026708362271,0.12218007096116569,0.12174096064580196,0,1,0
0.5410821643286573,0.3276212535695939,-0.828790092381366,1.0972424787042103,-0.4830358657145184,-0.027219935213621704,0.8514032259992911,0.14640914636706387,0.1470345480673934,0,1,0
0.561122244488978,0.310879135836278,-0.837105886665793,1.0880199627383658,-0.46112579829222977,-0.009716842517259044,0.8751546348181329,0.1385985964881208,0.13775022262451886,0,1,0
0.5811623246492986,0.2940517861017649,-0.8413674867256543,1.0789844160108932,-0.4517773363736253,0.007081398244374463,0.8399120380816755,0.14788963127242974,0.14703410075017814,0,1,0
0.6012024048096192,0.2772082996260767,-0.8421743237844125,1.0704120350018582,-0.428619050451748,0.02317058532391847,0.8044593539772003,0.19294673541844112,0.19227388677669915,0,1,0
0.6212424849699398,0.2604314342410669,-0.8388432692504876,1.063639821514412,-0.33861067437230524,0.0386983373317484,0.7763876003914966,0.16244255552421685,0.1613704748396685,0,1,0
0.6412825651302605,0.24379127621713179,-0.8320079011967554,1.0577538691332544,-0.2942976190578831,0.05334646154166621,0.7324062104958902,0.15535855760498854,0.1547209987842586,0,1,0
0.6613226452905812,0.22735390552778406,-0.8218685344673861,1.0525471130161907,-0.26033780585318134,0.06746429221316454,0.7058915335749163,0.13828584452458287,0.13780510035367644,0,1,0
0.6813627254509018,0.2111591176183258,-0.8097393954729142,1.0475125308767193,-0.25172910697357437,0.08117829908493239,0.6857003435883934,0.10699023311207836,0.10606143169652613,0,1,0
0.7014028056112224,0.19520104910220468,-0.7979034258060549,1.041714532520212,-0.28989991782536034,0.09413084053205335,0.6476270723560479,0.08246869197619297,0.08112369415772969,0,1,0
0.721442885771543,0.1794631119117015,-0.7868968595251585,1.034420719924052,-0.36469062980799893,0.10599040121638327,0.5929780342164946,0.1121744551564576,0.11064686877276814,0,1,0
0.7414829659318637,0.16405895721844754,-0.7702077346626978,1.026504245855328,-0.3958237034362092,0.1166128651188683,0.5311231951242517,0.17165328073383046,0.1699544909857267,0,1,0
0.7615230460921844,0.14921319581085465,-0.7422880703796445,1.0197120450209118,-0.339610041720811,0.12586336245610225,0.4625248668616985,0.25105562451958086,0.24686961181220834,0,1,0
0.781563126252505,0.13524727210379867,-0.6982961853527992,1.016336284394641,-0.16878803131353823,0.13175436964244033,0.2945503593169041,0.12802650111613267,0.12768997007239108,0,1,0
0.8016032064128256,0.12177610953911831,-0.6735581282340178,1.0128035891976852,-0.17663475984779542,0.13737005570111688,0.2807843029338266,0.19375334008431366,0.19250596060875041,0,1,0
0.8216432865731462,0.10907499475227385,-0.6350557393422235,1.0110284520865662,-0.08875685555594637,0.1419820999282954,0.2306022113589249,0.15037350115191347,0.14914176468049092,0,1,0
0.8416833667334669,0.09699818812793613,-0.6038403312168857,1.0097311079338491,-0.06486720763585826,0.14560422498504177,0.1811062528373191,0.10476558913602532,0.10433707240853878,0,1,0
0.8617234468937875,0.08537526880072806,-0.5811459663604039,1.0075820772804942,-0.10745153266774822,0.14888011641705023,0.16379457160042388,0.09978532554270539,0.09836790048564252,0,1,0
0.8817635270541082,0.07419307062304009,-0.5591099088843983,1.00442032193157,-0.15808776744620906,0.1510190239161574,0.10694537495535633,0.13767041842349265,0.13610837418543784,0,1,0
0.9018036072144289,0.06362664274557836,-0.5283213938730869,1.0013536797188662,-0.153332110635181,0.1519064047603453,0.04436904220939651,0.13294392246541034,0.13099858400075823,0,1,0
0.9218436873747494,0.053661599725735185,-0.4982521509921588,0.9982365943336178,-0.15585426926242182,0.15123677404310087,-0.033481535862220746,0.16968693818620606,0.1684280424304946,0,1,0
0.9418837675350701,0.04446668357780904,-0.4597458073963073,0.9961547323250171,-0.10409310043003867,0.14956058058785884,-0.0838096727621022,0.17218337862447558,0.1707144193295741,0,1,0
0.9619238476953907,0.03604794330026074,-0.420937013877415,0.995177302981165,-0.04887146719260314,0.1467106746872965,-0.14249529502811636,0.1696895050993573,0.16854757536863246,0,1,0
0.9819639278557114,0.02838543730646372,-0.383125299689851,0.9952359679932012,0.0029332506018119042,0.14294983351524446,-0.1880420586026053,0.16744125632911427,0.16675778499239902,0,1,0
1.002004008016032,0.02145518575136319,-0.3465125777550266,0.9962724767456285,0.051825437621363685,0.1386457935705135,-0.2152019972365469,0.13191003925127087,0.13169434473941355,0,1,0
1.0220440881763526,0.015088776408128656,-0.31832046716172663,0.9972532825793812,0.049040291687635,0.13417338383682595,-0.22362048668437806,0.12424928954983065,0.12385522432269769,0,1,0
1.0420841683366733,0.009237079047596432,-0.2925848680266112,0.9979534024228489,0.03500599217338561,0.12939010309997667,-0.23916403684246468,0.13570412410540567,0.13527139086313314,0,1,0
1.062124248496994,0.003928460458862353,-0.265430929436704,0.9987111682967983,0.037888293697466664,0.12426538154510523,-0.25623607774357104,0.13953007618720786,0.1392768169496666,0,1,0
1.0821643286573146,-0.0008418202964620347,-0.23851403776621938,0.9996441103521813,0.046647102769147165,0.1189432055486801,-0.2661087998212568,0.13339950338056916,0.13324922045265547,0,1,0
1.1022044088176353,-0.005117727835648391,-0.21379537695931777,1.0005760149216671,0.04659522847429176,0.11350619567562914,-0.2718504936525454,0.1326386401842471,0.13246082139996979,0,1,0
1.122244488977956,-0.008923429359555486,-0.1902850761953548,1.0014866615904983,0.04553233344155389,0.10793246492858632,-0.2786865373521423,0.1310387244509527,0.13089606206824692,0,1,0
1.1422845691382766,-0.012285973283346336,-0.16812719618954253,1.002331981771951,0.042266009072636355,0.10225030769162895,-0.28410786184786824,0.13234404514779516,0.13219889012842595,0,1,0
1.1623246492985972,-0.015223177629004029,-0.1468602172828846,1.0031528572785517,0.04104377533003607,0.09645786551590774,-0.28962210878605954,0.12834079935041337,0.12828848158667594,0,1,0
1.1823647294589177,-0.017769603940354345,-0.12732131556751575,1.003835033778673,0.034108825006065206,0.0906295458804104,-0.29141598177486716,0.12865482034533032,0.12868251854585908,0,1,0
1.2024048096192383,-0.019946558121196167,-0.10884770904209103,1.0043912758338553,0.027812102759114003,0.08482940585694644,-0.2900070011731996,0.12746535692590893,0.12755410479539211,0,1,0
1.222444889779559,-0.021779639211265064,-0.09165405450344483,1.004789583641387,0.019915390376583523,0.07910624871167993,-0.2861578572633249,0.1300211796845966,0.1301627010010949,0,1,0
1.2424849699398797,-0.02328452692002479,-0.07524438543798621,1.005108258422185,0.015933739039907188,0.07350219547212457,-0.28020266197776833,0.1280955709762447,0.12827702985063402,0,1,0
1.2625250501002003,-0.024487976947874183,-0.060172501392469754,1.0052928935439593,0.009231756088711136,0.06804904651154214,-0.2726574480291204,0.12949778771494205,0.12972237118979857,0,1,0
1.282565130260521,-0.025408389319862622,-0.046020618599422025,1.0053873015392891,0.004720399766486272,0.0627811136518788,-0.2633966429831678,0.1296652362487497,0.12990681884245303,0,1,0
1.3026052104208417,-0.026066549792779448,-0.03290802364584126,1.0053982422231795,0.0005470341945160223,0.05771176857634288,-0.2534672537767963,0.12987381089553457,0.1301236949341653,0,1,0
1.3226452905811623,-0.026482504002663103,-0.020797710494182692,1.0053334003575496,-0.003242093281500948,0.0528474115694097,-0.24321785034665871,0.13030354691154136,0.13055691587579188,0,1,0
1.342685370741483,-0.02667520936258413,-0.009635267996051418,1.0052067768814175,-0.0063311738066012665,0.04819058530005919,-0.23284131346752468,0.13058910916892594,0.1308330813517143,0,1,0
1.3627254509018036,-0.026663180169974206,0.0006014596304962858,1.005027770229514,-0.008950332595168017,0.04373352756277687,-0.2228528868641168,0.13090420386636833,0.1311457323146907,0,1,0
1.3827655310621243,-0.02646414657589513,0.009951679703953853,1.0048066223123042,-0.011057395860489237,0.039474050925574676,-0.21297383186010854,0.13133096800547106,0.13157179946803976,0,1,0
1.4028056112224447,-0.026094993086054955,0.018457674492008844,1.0045567856609907,-0.01249183256567791,0.03541137101752071,-0.2031339954026988,0.1314667850463389,0.13170295941017443,0,1,0
1.4228456913827654,-0.02557227960111087,0.026135674247204234,1.0042829271919391,-0.013692923452584643,0.03154153939983987,-0.1934915808840425,0.13117125783202319,0.13139934701953782,0,1,0
1.442885771543086,-0.024912277484454858,0.03300010583280061,1.0039767904939596,-0.015306834898971246,0.027857872654945194,-0.18418333724473346,0.13140923049148331,0.1316315195859058,0,1,0
1.4629258517034067,-0.024129928731391893,0.039117437653148165,1.003645869324384,-0.01654605847878303,0.024355525688403334,-0.17511734832709272,0.13173427112175107,0.13195469550190586,0,1,0
1.4829659318637274,-0.023239419646777896,0.0445254542306998,1.0033002116006202,-0.017282886188184687,0.02103280967932856,-0.1661358004537387,0.13231125815434283,0.13252398714702918,0,1,0
1.503006012024048,-0.022254107900073095,0.049265587335240085,1.002957165094319,-0.017152325315060418,0.017883375715359917,-0.15747169819843207,0.1323727563987411,0.13258621910665416,0,1,0
1.5230460921843687,-0.02118707113996957,0.053351838005176226,1.0026188572898502,-0.016915390223436962,0.014907627375271189,-0.14878741700443646,0.1307956533930363,0.1312327963035145,0,1,0
1.5430861723446894,-0.02005151795737799,0.056777659129578884,1.0022421175088339,-0.018836989050813782,0.01228432661693067,-0.13116503791702588,0.13223114952104598,0.13258863956836364,0,1,0
1.56312625250501,-0.01885844328685576,0.05965373352611156,1.0018685173448523,-0.018680008199074293,0.009949390821216637,-0.11674678978570176,0.13260795600421507,0.13288572957770178,0,1,0
1.5831663326653307,-0.01761806675241312,0.06201882672213195,1.0015081777620014,-0.018016979142548222,0.007838759304128747,-0.10553157585439457,0.13271226088323038,0.13293591826856158,0,1,0
1.6032064128256511,-0.016339591138909388,0.06392378067518656,1.001163478860123,-0.01723494509392285,0.005908919992557529,-0.09649196557856099,0.13270117854646776,0.13287271338617074,0,1,0
1.6232464929859718,-0.015031365302057105,0.06541129184261416,1.0008333811259182,-0.016504886710236682,0.004118001139813434,-0.08954594263720472,0.13262315026852145,0.132766243142292,0,1,0
1.6432865731462925,-0.013701024715381024,0.06651702933380405,1.0005151913641712,-0.015909488087353346,0.0024431174331647158,-0.08374418533243588,0.13290151735892258,0.13303886129829595,0,1,0
1.6633266533066131,-0.01235559689846455,0.06727139084582379,1.0002170976195506,-0.014904687231036013,0.0008795608402519825,-0.07817782964563667,0.13333758154735698,0.13342606642449978,0,1,0
1.6833667334669338,-0.011001664264196501,0.06769663171340237,0.9999513010309824,-0.013289829428406603,-0.0006118593038614,-0.07457100720566912,0.13363485165623903,0.1337346203968417,0,1,0
1.7034068136272544,-0.009645405535216282,0.06781293644901094,0.9997267594326898,-0.011227079914629404,-0.0020221824348117512,-0.07051615654751757,0.1323446788373315,0.13242540494216912,0,1,0
1.723446893787575,-0.008292706422324516,0.06763495564458834,0.9995049288404058,-0.011091529614204334,-0.003366716927186945,-0.06722672461875967,0.13299941379608704,0.13312002069836842,0,1,0
1.7434869739478958,-0.006949136107461648,0.06717851574314342,0.9993057899554806,-0.009956944246258731,-0.004613618046460672,-0.06234505596368629,0.13227525420648623,0.13236033247251622,0,1,0
1.7635270541082164,-0.0056199129252763125,0.06646115910926678,0.9991073261917768,-0.009923188185190763,-0.005791396894453185,-0.058888942399625645,0.1321959935295046,0.13230480377464926,0,1,0
1.783567134268537,-0.0043099031165101985,0.0655004904383057,0.9989075204947788,-0.00999028484989521,-0.006881129897128278,-0.05448665013375459,0.13164397389352175,0.1317552460910359,0,1,0
1.8036072144288577,-0.003023609878854543,0.06431466188278279,0.9986900304593179,-0.010874501773046294,-0.007880925907544923,-0.04998980052083231,0.1306150569396081,0.13075223483120924,0,1,0
1.8236472945891782,-0.0017650570651835576,0.06292764068354927,0.9984247421194892,-0.013264416991436089,-0.008770139839057372,-0.044460696575622516,0.13093520459525806,0.1310792427724182,0,1,0
1.8436873747494988,-0.0005381668823041914,0.06134450914396831,0.9981212546320571,-0.015174374371602318,-0.009543380275212992,-0.0386620218077809,0.13269027095637081,0.13283064858487512,0,1,0
1.8637274549098195,0.0006531816041691109,0.05956742432366511,0.9978315172519964,-0.014486869003037275,-0.010203676133772469,-0.03301479292797381,0.13217055513486042,0.13228985746585986,0,1,0
1.8837675350701402,0.0018061288368123069,0.0576473616321598,0.9975397794963045,-0.014586887784597114,-0.010767984472038809,-0.028215416913317,0.13248225721254947,0.1325994927829683,0,1,0
1.9038076152304608,0.002918028325262665,0.0555949744225179,0.9972552216109772,-0.01422789426636116,-0.011238040184487005,-0.02350278562240983,0.13286808544583267,0.1329794431792868,0,1,0
1.9238476953907815,0.00398657855509605,0.05342751149166923,0.9969891580111051,-0.013303179993605106,-0.011618624837357537,-0.019029232643526597,0.1329076019076741,0.13301129020491606,0,1,0
1.9438877755511021,0.005009955110970589,0.05116882779372691,0.9967426093572667,-0.01232743269192442,-0.011915948596939443,-0.014866187979095172,0.13301863128144814,0.13311875453096716,0,1,0
1.9639278557114228,0.005986661269548218,0.04883530792888149,0.9965187782902041,-0.011191553353126805,-0.012132932365387563,-0.010849188422406227,0.1329621837420896,0.1330548477471167,0,1,0
1.9839679358717435,0.006915587356436987,0.046446304344438416,0.99631584853131,-0.0101464879447037,-0.012275609461270083,-0.0071338547941257255,0.13332028762004872,0.13340314858816496,0,1,0
2.004008016032064,0.0077957933720964965,0.04401030078297548,0.9961442563088465,-0.008579611123178796,-0.012351882827390012,-0.0038136683059967966,0.1326415943460727,0.13271139640664373,0,1,0
2.024048096192385,0.008627007532396567,0.0415607080150035,0.9959836667435648,-0.008029478264088678,-0.012372253293818948,-0.0010185233214466947,0.1289145461537769,0.12853266628910148,0,1,0
2.0440881763527052,0.00941041928561344,0.03917058766084368,0.9957169529170696,-0.013335691324754068,-0.012698111338953898,-0.016292902256747507,0.13211814757650894,0.13174770470846633,0,1,0
2.064128256513026,0.010144814941192378,0.03671978277894687,0.9954392858419969,-0.013883353753633282,-0.013320058729020128,-0.031097369503311573,0.13869375406065468,0.13847783934398336,0,1,0
2.0841683366733466,0.010826459850801847,0.03408224548047349,0.9953477644037731,-0.004576071911191179,-0.014114224828372617,-0.039708304967624584,0.14188243189460334,0.14193798462476068,0,1,0
2.1042084168336674,0.011451534872492607,0.031253751084537984,0.9955406926059749,0.009646410110085692,-0.014863288196757632,-0.037453168419250796,0.13664972598434963,0.1368163517118408,0,1,0
2.124248496993988,0.012018913721585187,0.028368942454629013,0.9958644071858302,0.016185728992767268,-0.015478429326028892,-0.030757056463562974,0.1345415228684421,0.13476897220489437,0,1,0
