time,x,x_dot,z,z_dot,theta,theta_dot,u1,u2,x_ref,z_ref,theta_ref
0.0,0.45979699052943523,0.03868299136037606,1.4419210172345827,-0.08806958799104517,0.07620838829026134,0.08447950380264324,0.0844316149312847,0.05632337490488239,0,1,0
0.02004008016032064,0.46072873235348066,0.04658709120227187,1.4383203768809765,-0.18003201768030672,0.055409921002987465,-1.039923364363693,0.06030791296685986,0.07663682183105107,0,1,0
0.04008016032064128,0.4618140529628469,0.05426603046831025,1.43282607506098,-0.27471509099982033,0.04770569733243661,-0.38521118352754236,0.06736989593586445,0.05632337490488015,0,1,0
0.06012024048096192,0.4629997485207583,0.059284777895571704,1.4252470800257702,-0.3789497517604928,0.03117305720221385,-0.8266320065111386,0.06808607998849327,0.056323374904880215,0,1,0
0.08016032064128256,0.4642720248635716,0.06361381714066519,1.415597479925445,-0.48248000501625815,0.005255698764853294,-1.2958679218680276,0.06383304517054332,0.05632337490488026,0,1,0
0.1002004008016032,0.4655982700771949,0.06631226068116555,1.4038185866101829,-0.5889446657631061,-0.026619775488673763,-1.5937737126763531,0.06383304517054332,0.05632337490488026,0,1,0
0.12024048096192384,0.4669321810788586,0.0666955500831848,1.3899147717067428,-0.695190745172006,-0.0644337914149661,-1.8907007963146156,0.05632337490488047,0.05744611954015618,0,1,0
0.1402805611222445,0.46821941804659445,0.06436184838679242,1.373794724865131,-0.8060023420805901,-0.10126280703668793,-1.841450781086093,0.05703094128074131,0.05632337490559885,0,1,0
0.16032064128256512,0.4693966622655742,0.05886221094898647,1.3554538397676594,-0.917044254873576,-0.13857377312760613,-1.8655483045459091,0.05632337490488178,0.05936157427466503,0,1,0
0.18036072144288576,0.47039884631814033,0.050109202628307106,1.3349261821561187,-1.0263828805770405,-0.17337033874679514,-1.7398282809594499,0.05632337490488309,0.06080398200796699,0,1,0
0.2004008016032064,0.4711597175740915,0.03804356279755676,1.3122304084424448,-1.134788685683699,-0.20450831974210187,-1.5568990497653379,0.10776501384467854,0.11346175173405165,0,1,0
0.22044088176352705,0.47135392143331223,0.009710192961037693,1.2888817083020667,-1.1674350070189008,-0.23102742627287193,-1.325955326538505,0.14439492426246017,0.15350369012400664,0,1,0
0.24048096192384769,0.47065150760414515,-0.03512069145835433,1.2659748379336502,-1.1453435184208223,-0.25021273650291553,-0.9592655115021791,0.14439492426246017,0.15350369012400664,0,1,0
0.2605210420841683,0.46893974907275676,-0.08558792656942028,1.243483350285497,-1.1245743824076564,-0.2620823037976404,-0.5934783647362436,0.14439492426246017,0.15350369012400664,0,1,0
0.280561122244489,0.46613812367926494,-0.14008126967459056,1.2213860302457726,-1.1048660019862138,-0.2666502405998154,-0.228396840108752,0.29142925500378036,0.29668288667446907,0,1,0
0.3006012024048096,0.46108382339535126,-0.2527150141956841,1.2038213297050304,-0.8782350270371082,-0.267010826923166,-0.018029316167532977,0.29068334088296754,0.29668288667476,0,1,0
0.32064128256513025,0.45374434456987567,-0.3669739412737797,1.1907577165387109,-0.6531806583159729,-0.2625714832551612,0.22196718340024454,0.19929590610607933,0.20562778516666338,0,1,0
0.3406813627254509,0.4448323384266271,-0.4456003071624289,1.179578677104963,-0.558951971687395,-0.2530710260392246,0.475022860796829,0.26968089226400155,0.2743698594474744,0,1,0
0.3607214428857715,0.4338404635539719,-0.5495937436327625,1.172278733764198,-0.3649971670382478,-0.23983077507626022,0.6620125481482179,0.1486069207021434,0.15256790316671803,0,1,0
0.3807615230460922,0.4217460333125163,-0.6047215120727771,1.1653882140475431,-0.3445259858327487,-0.22343962025859507,0.8195577408832584,0.17317352187602683,0.17618972694063917,0,1,0
0.4008016032064128,0.40843857356190827,-0.6653729875304011,1.1596146556988631,-0.2886779174340038,-0.20465968524902695,0.9389967504784048,0.13152052182351645,0.133465922525503,0,1,0
0.42084168336673344,0.39427959930810474,-0.7079487126901762,1.1537572019345084,-0.2928726882177343,-0.18435283550172354,1.0153424873651715,0.08896424211011653,0.0904006127091514,0,1,0
0.4408817635270541,0.37960058552084547,-0.7339506893629646,1.1465898249188864,-0.3583688507810989,-0.16292986639737583,1.0711484552173878,0.10425057159628617,0.10497552851437418,0,1,0
0.4609218436873747,0.3643747091836234,-0.7612938168611021,1.1385599877800894,-0.4014918569398538,-0.14096256095790438,1.0983652719735708,0.09702152731663763,0.09732493603529084,0,1,0
0.48096192384769537,0.3487044611516264,-0.7835124015998519,1.1294631787981524,-0.4548404490968537,-0.11878946345048239,1.1086548753710994,0.10329901991999914,0.10357433674434753,0,1,0
0.501002004008016,0.3326275152735803,-0.8038472939023038,1.11949463185412,-0.49842734720162635,-0.09643357095205035,1.117794624921603,0.09961195878671272,0.09927811455145844,0,1,0
0.5210420841683366,0.31622640294885573,-0.8200556162362299,1.1085473575767053,-0.5473637138707295,-0.07438256325466892,1.1025503848690699,0.12017808995909211,0.12012450391402153,0,1,0
0.5410821643286573,0.29950857268851055,-0.8358915130172602,1.0972409739753446,-0.5653191800680397,-0.05241150465429375,1.0985529300187589,0.13875200714309263,0.13812785371989797,0,1,0
0.561122244488978,0.28251278244102457,-0.8497895123743006,1.0861233445803578,-0.5558814697493437,-0.0309765342216313,1.0717485216331224,0.16133901003728465,0.16098921760971713,0,1,0
0.5811623246492986,0.265294232998321,-0.8609274721351783,1.0758723166422133,-0.5125513969072193,-0.009856859741368516,1.0559837240131391,0.1278870601964058,0.12654473907542485,0,1,0
0.6012024048096192,0.2479865170670362,-0.8653857965642404,1.06548525804238,-0.5193529299916627,0.01015445996030805,1.000565985083828,0.2286337952903761,0.22744371400223368,0,1,0
0.6212424849699398,0.23064002299060243,-0.867324703821688,1.0579512713532935,-0.3766993344543241,0.029181878082024614,0.9513709060858284,0.07225623212071211,0.07085405093169969,0,1,0
0.6412825651302605,0.21334205698130373,-0.8648983004649353,1.0486290541829169,-0.4661108585188339,0.04705805066670835,0.8938086292341867,0.1210043101689674,0.11921278122707543,0,1,0
0.6613226452905812,0.1961753624641539,-0.8583347258574916,1.038958878595741,-0.48350877935878506,0.063474145851104,0.8208047592197834,0.2536318356266181,0.25279525472099296,0,1,0
0.6813627254509018,0.1793888592566538,-0.8393251603750049,1.0328783783656392,-0.30402501150509464,0.07919715408558387,0.7861504117239931,0.10420793711068102,0.1026476693020173,0,1,0
0.7014028056112224,0.16282216105877845,-0.8283349098937678,1.0259454410781828,-0.3466468643728201,0.09364963543173796,0.722624067307705,0.14898135185491185,0.14817777771982354,0,1,0
0.721442885771543,0.1466289068146096,-0.8096627122084419,1.0194915889302452,-0.3226926073968804,0.10743940765370595,0.689488611098398,0.13241842154079303,0.1312923685455128,0,1,0
0.7414829659318637,0.13082523670231927,-0.7901835056145161,1.013017107105131,-0.3237240912557033,0.12030978499912626,0.6435188672710177,0.14119659941013626,0.1394399081176189,0,1,0
0.7615230460921844,0.11549083447202693,-0.7667201115146167,1.0067658328725235,-0.31256371163037394,0.13175800353889253,0.5724109269883103,0.1977654078430057,0.19551709478521415,0,1,0
0.781563126252505,0.10087814107833373,-0.7306346696846601,1.0023879916965845,-0.21889205879694668,0.1413932884554185,0.48176424582629623,0.1691958854314462,0.16718049108167612,0,1,0
0.8016032064128256,0.08694075275991801,-0.6968694159207858,0.999036484374472,-0.16757536610562504,0.14940491095790348,0.4005811251242521,0.1741553818546955,0.17179053161201185,0,1,0
0.8216432865731462,0.07374475194938768,-0.6598000405265166,0.9968435590042951,-0.10964626850884523,0.15551573724051163,0.30554131413040886,0.1585505643451834,0.1562096404450929,0,1,0
0.8416833667334669,0.06126047197792708,-0.6242139985730296,0.9953447276316882,-0.07494156863034547,0.15974747702023837,0.2115869889863345,0.12207330353985009,0.12039678865101433,0,1,0
0.8617234468937875,0.049348845209273684,-0.5955813384326699,0.9934766478348898,-0.09340398983992498,0.16263391520124149,0.14432190905015801,0.1743049889097668,0.1727924780965937,0,1,0
0.8817635270541082,0.03827045426989922,-0.553919546968723,0.9927676752003198,-0.035448631728496945,0.16430770736081093,0.08368960797847264,0.1574860248243616,0.15610235216866497,0,1,0
0.9018036072144289,0.027958076114905365,-0.5156189077496929,0.9927240339873258,-0.0021820606497051226,0.1648731118495077,0.028270224434836545,0.11465184381387236,0.11344265497707445,0,1,0
0.9218436873747494,0.018210931789779387,-0.48735721625629896,0.9920941121073591,-0.03149609399833242,0.16447070031251854,-0.020120576849458165,0.17810611702718093,0.1769078113527586,0,1,0
0.9418837675350701,0.009338614559087948,-0.44361586153457194,0.9927330832618103,0.031948557722561874,0.1631099727202346,-0.06803637961419595,0.15362615838771337,0.15284563195499395,0,1,0
0.9619238476953907,0.0012199400077001661,-0.40593372756938906,0.9939303677569954,0.05986422475925471,0.16112598720508883,-0.09919927575728872,0.12092796774431552,0.12017207064884354,0,1,0
0.9819639278557114,-0.0063095497416760845,-0.3764744874688125,0.9947307447522318,0.04001884976182135,0.15853902984002355,-0.1293478682532631,0.1541819672260742,0.15324968958362242,0,1,0
1.002004008016032,-0.013100051368743131,-0.33952508135335235,0.9961057883156761,0.06875217817221452,0.1552085901164224,-0.16652198618005873,0.11475340084000284,0.11404880204718604,0,1,0
1.0220440881763526,-0.01934809332711656,-0.31240209791867135,0.9969065032472206,0.04003574657722889,0.15131758250954003,-0.19455038034411776,0.150123564958562,0.14907579073972005,0,1,0
1.0420841683366733,-0.024904346455634607,-0.27781265642590247,0.9981656761820935,0.06295864674364231,0.14659208027648205,-0.23627511165289833,0.13566742059299497,0.13526016458160145,0,1,0
1.062124248496994,-0.02984985375073971,-0.2472753647552551,0.9994714330987886,0.06528784583475318,0.1415454504885099,-0.2523314893986088,0.15266842238433637,0.1519138814718376,0,1,0
1.0821643286573146,-0.03413128743224522,-0.21407168407527566,1.0013198121695066,0.09241895353590082,0.1359002516999301,-0.2822599394289893,0.11318863096658882,0.11284608291600282,0,1,0
1.1022044088176353,-0.037936090544696134,-0.1902401556225457,1.0025615407287394,0.06208642796164246,0.12998680972711124,-0.2956720986409423,0.14345494651570279,0.1428851747776803,0,1,0
1.122244488977956,-0.04116251442828051,-0.16132119417921892,1.0040850400468533,0.0761749659056926,0.12362368783882376,-0.31815609441437437,0.11369274432665408,0.11356328406281048,0,1,0
1.1422845691382766,-0.043949494202686956,-0.13934898872032217,1.0050254558176315,0.047020788538912756,0.1171637099063248,-0.32299889662494824,0.13976948629126248,0.13946352094260014,0,1,0
1.1623246492985972,-0.04622381346071201,-0.1137159629012528,1.0061502232773132,0.0562383729840804,0.11046580203700138,-0.33489539346616953,0.1210480650224096,0.12107074217940089,0,1,0
1.1823647294589177,-0.04807678347337124,-0.09264850063296143,1.0069163306132414,0.038305366796412055,0.1037931882912644,-0.33363068728684925,0.13546083844184645,0.1355253611256625,0,1,0
1.2024048096192383,-0.04948554672668587,-0.07043816266573147,1.00775190435087,0.041778686881428356,0.09717931058527271,-0.33069388529958577,0.12281778900414081,0.12286395132534784,0,1,0
1.222444889779559,-0.050515989482373215,-0.05152213778436733,1.0082868965160505,0.026749608259028775,0.09060940276567106,-0.32849539098008335,0.12948807395188233,0.12962529438064566,0,1,0
1.2424849699398797,-0.0511731030811073,-0.03285567993670406,1.0087220405987325,0.02175720413409998,0.08415625139356253,-0.32265756860542444,0.12625626872699375,0.12641909471636711,0,1,0
1.2625250501002003,-0.05149095251451509,-0.01589247167038962,1.0089648055513247,0.012138247629612743,0.07784018634817681,-0.3158032522692856,0.1274098103910547,0.12759035909480695,0,1,0
1.282565130260521,-0.051490993893472066,-2.0689478486581037e-06,1.0090517829515433,0.004348870010931934,0.071675205943768,-0.30824902022044154,0.1275579338069999,0.12774938625859839,0,1,0
1.3026052104208417,-0.05119691514219208,0.014703937563999287,1.0089895681698324,-0.003110739085537952,0.06566983685354998,-0.30026845451090084,0.12900656630880017,0.12921656897908906,0,1,0
1.3226452905811623,-0.05062911439959373,0.028390037129917715,1.00882310953475,-0.008322931754120959,0.05983871374356818,-0.29155615549909053,0.1296129736000504,0.12982968540929848,0,1,0
1.342685370741483,-0.04980955446352233,0.04097799680356987,1.0085720981282038,-0.012550570327308462,0.05418698211176175,-0.28258658159032113,0.12985676556908635,0.13008122739408778,0,1,0
1.3627254509018036,-0.04876038087727168,0.052458679312532536,1.008245336959162,-0.01633805845209762,0.048720616140047274,-0.2733182985857231,0.13041269838622957,0.1306695799377579,0,1,0
1.3827655310621243,-0.047502606250294066,0.06288873134888051,1.0078610600570186,-0.01921384510716664,0.04346532067812633,-0.26276477309604684,0.13127332317804086,0.13152500051020316,0,1,0
1.4028056112224447,-0.04605629465482196,0.07231557977360556,1.0074457994348198,-0.02076303110993555,0.03841667326306539,-0.2524323707530483,0.13077339090285894,0.1310228425326682,0,1,0
1.4228456913827654,-0.044442701611802415,0.08067965215097699,1.0069856956478767,-0.023005189347154495,0.03357264308001186,-0.24220150915267627,0.1306606768305416,0.1309275742161019,0,1,0
1.442885771543086,-0.04268166509457267,0.08805182586148742,1.0064785129500857,-0.025359134889548208,0.028946942109527724,-0.23128504852420617,0.12990627449363942,0.13019128763521273,0,1,0
1.4629258517034067,-0.040792825426977854,0.09444198337974079,1.0059028990292538,-0.028780696041592967,0.02455380565797693,-0.21965682257753985,0.13142611074896915,0.1316915578696286,0,1,0
1.4829659318637274,-0.03879282545186971,0.099999998755407,1.0053041975796897,-0.02993507247819888,0.020377311348723386,-0.2088247154626775,0.1325176752431685,0.13280432230179456,0,1,0
1.503006012024048,-0.036698088637254496,0.10473684073076081,1.0047155365193126,-0.029433053018857302,0.016434171605913515,-0.1971569871404934,0.13273684449932865,0.13303244048746657,0,1,0
1.5230460921843687,-0.03452498342874582,0.10865526042543389,1.0041439029340389,-0.028581679263684212,0.012731283260955363,-0.18514441724790753,0.130306627847718,0.13067730099228464,0,1,0
1.5430861723446894,-0.032290273335296646,0.11173550467245877,1.0035186844955568,-0.031260921924107954,0.009328442164557742,-0.17014205481988107,0.13188704531443443,0.13214711088161613,0,1,0
1.56312625250501,-0.03000775987735156,0.11412567289725421,1.0028853243899247,-0.031668005281604183,0.006136837763259899,-0.15958022006489214,0.13488027300813865,0.1351567803962171,0,1,0
1.5831663326653307,-0.027689970350811874,0.11588947632698444,1.002332905860463,-0.027620926473082223,0.0031693988827876125,-0.1483719440236143,0.13483195616208918,0.13508292550755602,0,1,0
1.6032064128256511,-0.025349716502410486,0.11701269242006943,1.0018596456061,-0.0236630127181588,0.0004054607734895961,-0.13819690546490082,0.1343673181473596,0.13459366063308842,0,1,0
1.6232464929859718,-0.02299892957505864,0.11753934636759224,1.0014513962388853,-0.02041246836073438,-0.0021748873142830114,-0.12901740438863035,0.13366878925560494,0.13385912442136155,0,1,0
1.6432865731462925,-0.02064864064010174,0.11751444674784507,1.001086888607165,-0.018225381586014944,-0.004600637170097246,-0.12128749279071165,0.13320365585501925,0.13338952282512914,0,1,0
1.6633266533066131,-0.018309045304914433,0.11697976675936529,1.0007522264912905,-0.016733105793733438,-0.006875517916968824,-0.11374403734357902,0.12824556331073458,0.12846263219169218,0,1,0
1.6833667334669338,-0.015989039372461863,0.11600029662262856,1.000300907872953,-0.022565930916877475,-0.008974717100565178,-0.1049599591798177,0.1314083404787568,0.13162692784105282,0,1,0
1.7034068136272544,-0.013697901214067255,0.11455690791973043,0.9998267196607236,-0.023709410611470316,-0.010897191154824744,-0.09612370271297839,0.13177737457088942,0.13198673669010336,0,1,0
1.723446893787575,-0.011443879670162206,0.11270107719525249,0.9993404142708984,-0.024315269491257074,-0.012650490007760922,-0.08766494264680891,0.13104914412273275,0.13125588204015057,0,1,0
1.7434869739478958,-0.009234214894991644,0.1104832387585281,0.9988203124409378,-0.026005091498026486,-0.01423687317964947,-0.07931915859442754,0.1331690790100926,0.13338752472241208,0,1,0
1.7635270541082164,-0.007076473778136772,0.1078870558427436,0.9983293446570396,-0.02454838919491022,-0.015647130230609988,-0.07051285254802593,0.13158778460955636,0.13177988180945194,0,1,0
1.783567134268537,-0.004976196594867618,0.10501385916345768,0.9978201608992631,-0.02545918788882768,-0.01690250191586136,-0.06276858426256827,0.13278182689017265,0.13297692297394256,0,1,0
1.8036072144288577,-0.0029393840369404253,0.10184062789635964,0.9973281132056815,-0.024602384679076533,-0.018000729521435013,-0.054911380278682684,0.13114366887397416,0.13130499803757065,0,1,0
1.8236472945891782,-0.0009700876152833487,0.09846482108285383,0.9968040733951109,-0.026201990528529576,-0.018968967047744704,-0.04841187631548454,0.13371166349420507,0.1339014049722543,0,1,0
1.8436873747494988,0.000926110322540045,0.09480989689116968,0.996324491277787,-0.023979105866194866,-0.01978459937340769,-0.04078161628314931,0.13207858727115185,0.13224380527925605,0,1,0
1.8637274549098195,0.002746367068137476,0.09101283727987156,0.9958405131543705,-0.024198906170826706,-0.02046737822046328,-0.0341389423527795,0.13519261404016444,0.13537437531812152,0,1,0
1.8837675350701402,0.00448573105887846,0.08696819953704919,0.9954445740395538,-0.019796955740837795,-0.02100418320850394,-0.02684024940203285,0.1325907980236925,0.13274971385807652,0,1,0
1.9038076152304608,0.006143128403552071,0.08286986723368056,0.9950591271346965,-0.019272345242864922,-0.021413414576990215,-0.020461568424313795,0.13408674292594028,0.13424136468055622,0,1,0
1.9238476953907815,0.007715596673863707,0.07862341351558177,0.9947283691911384,-0.016537897177903115,-0.021698614468241742,-0.014259994562576202,0.13239013862850224,0.13252709330512585,0,1,0
1.9438877755511021,0.00920267109902002,0.07435372125781563,0.9944016970753999,-0.016333605786923264,-0.02187401920918332,-0.008770237047079181,0.13302059576778782,0.1331609239914155,0,1,0
1.9639278557114228,0.010602905048757659,0.07001169748688188,0.9940978078085871,-0.015194463340637489,-0.021937019818487193,-0.0031500304651935138,0.13323512181099806,0.13337897935402143,0,1,0
1.9839679358717435,0.011915546605180323,0.06563207782113321,0.9938230726985251,-0.013736755503102799,-0.02188488383435137,0.002606799206791236,0.1332357408027576,0.13337305260421667,0,1,0
2.004008016032064,0.013140428621918424,0.06124410083690506,0.9935773816776171,-0.012284551045397583,-0.02172294022671037,0.008097180382049863,0.13257909240871463,0.13270374489832415,0,1,0
2.024048096192385,0.014278266255334992,0.056891881670828384,0.9933410744719093,-0.011815360285389096,-0.021461405232601878,0.013076749705424896,0.12498730666776102,0.12447182258574473,0,1,0
2.0440881763527052,0.015334865770015858,0.0528299757340433,0.9928797861620501,-0.023064415492961857,-0.021612469454015345,-0.007553211070673844,0.1407423396569838,0.14045522921250964,0,1,0
2.064128256513026,0.016301172290374977,0.04831532601795594,0.9926638187140864,-0.01079837239818542,-0.02199310026419699,-0.019031540509082227,0.14948836666199608,0.14947866347516664,0,1,0
2.0841683366733466,0.01717095026748984,0.0434888988557432,0.9929561393977893,0.014616034185142693,-0.022381183323446095,-0.01940415296245506,0.13176972919369595,0.1318126940362036,0,1,0
2.1042084168336674,0.017954126019230323,0.03915878758702415,0.9932321959232797,0.013802826274524742,-0.022734578020498712,-0.017669734852631007,0.1412009272726984,0.1414239272715184,0,1,0
2.124248496993988,0.018642946244366566,0.034441011256812176,0.9937740086806796,0.027090637869991274,-0.022909285018371632,-0.008735349893645807,0.12336280434055616,0.12352775395280322,0,1,0
