time,x,x_dot,z,z_dot,theta,theta_dot,u1,u2,x_ref,z_ref,theta_ref
0.0,-0.9919435130139129,0.07443538285410847,0.7427423876044142,0.03021225957233703,-0.0063630468120141614,0.057706698833507236,0.29668288667470427,0.26615627007025233,0,1,0
0.02004008016032064,-0.9905091490004053,0.07171820067538032,0.7477642996420434,0.2510956018814583,-0.02963118270707444,-1.163406794753014,0.12601260869517653,0.1559785664832688,0,1,0
0.04008016032064128,-0.9891028145147172,0.07031672428440804,0.753038707491678,0.2637203924817304,-0.028892770826652276,0.036920594021108366,0.19300367565311793,0.2447048972185469,0,1,0
0.06012024048096192,-0.9878900295707418,0.06063924719876804,0.7608694690723029,0.39153807903124693,0.013205994490458724,2.1049382658555498,0.05632337490488026,0.07502728891265631,0,1,0
0.08016032064128256,-0.9867348149188996,0.05776073259211022,0.7667166075685049,0.29235692481009823,0.07015006157858536,2.847203354406331,0.1236861443770369,0.1357163560851905,0,1,0
0.1002004008016032,-0.9855300506876895,0.06023821156050464,0.7724803392633794,0.28818658474372766,0.13652743813375978,3.318868827758722,0.2460114719900413,0.25294560573649144,0,1,0
0.12024048096192384,-0.9838084130024912,0.08608188425991667,0.7816918785700312,0.46057696533259024,0.20821056543593197,3.5841563651086115,0.2966828866747925,0.28988747769923257,0,1,0
0.1402805611222445,-0.9809060662162986,0.14511733930962806,0.7955816637863147,0.694489260814174,0.2742084414563574,3.2998938010212706,0.2966828866747901,0.28986320533900356,0,1,0
0.16032064128256512,-0.976211472105748,0.2347297055275288,0.8140343510703012,0.9226343641993243,0.3345354228626073,3.0163490703124918,0.2721055275215364,0.25863863636000406,0,1,0
0.18036072144288576,-0.9693950598710309,0.34082061173585537,0.8361073404534595,1.1036494691579162,0.3839146542900925,2.468961571374262,0.2966828866747981,0.2835119762384279,0,1,0
0.2004008016032064,-0.9597682424859963,0.4813408692517306,0.8623412460547546,1.3116952800647583,0.42263296493370023,1.935915532180393,0.2966828866747994,0.2784831937885933,0,1,0
0.22044088176352705,-0.9469683288085812,0.6399956838707609,0.8925055393799634,1.5082146662604363,0.4467114942744293,1.2039264670364498,0.26905210447319955,0.25768801910063865,0,1,0
0.24048096192384769,-0.9309947001929051,0.7986814307838017,0.925803103896023,1.6648782258029862,0.4616589367919028,0.7473721258736674,0.20423260649081043,0.19389268486503258,0,1,0
0.2605210420841683,-0.9125094332129162,0.9242633489994435,0.9604242243251929,1.7310560214584956,0.468314471079577,0.3327767143837195,0.15500970909437803,0.14716886658101702,0,1,0
0.280561122244489,-0.892073891006554,1.0217771103181137,0.9950513701269277,1.7313572900867396,0.4686903740109248,0.018795146567385734,0.1195130478223018,0.11136042708686333,0,1,0
0.3006012024048096,-0.8701436773669472,1.0965106819803407,1.028727203456701,1.6837916664886612,0.4625438744402589,-0.30732497853329466,0.08893936456399519,0.08276718257221136,0,1,0
0.32064128256513025,-0.8471171790215913,1.1513249172677948,1.0606714417220158,1.5972119132657343,0.4514661509263374,-0.5538861756960641,0.07463956966157799,0.06754845558411816,0,1,0
0.3406813627254509,-0.8232054011726474,1.195588892447196,1.0905049480504387,1.4916753164211445,0.43472965504086586,-0.8368247942735845,0.06144865635202035,0.056323374904884996,0,1,0
0.3607214428857715,-0.7985881043203638,1.2308648426141826,1.1179189213113339,1.3706986630447575,0.413918102368193,-1.0405776336336503,0.05995509680800829,0.05632337490488107,0,1,0
0.3807615230460922,-0.7733012643011271,1.2643420009618307,1.1429129713971058,1.2497025042886,0.39023577592857944,-1.1841163219806705,0.05863805546490488,0.05632337490488053,0,1,0
0.4008016032064128,-0.7473856170630128,1.295782361905715,1.1654907863303174,1.1288907466605795,0.36474360477642276,-1.2746085576078356,0.05840071244003072,0.05632337490488053,0,1,0
0.42084168336673344,-0.7208797874258772,1.325291481856775,1.1856713359108226,1.009027479025258,0.33763649183640776,-1.3553556470007535,0.05698218767591812,0.05632337490488042,0,1,0
0.4408817635270541,-0.6938317095488759,1.352403893850069,1.203457023963315,0.8892844026246272,0.310053600335096,-1.3791445750655877,0.05673208564025563,0.056323374904880416,0,1,0
0.4609218436873747,-0.666285471330591,1.3773119109142438,1.21886578481906,0.770438042787247,0.2821963640854325,-1.3928618124831784,0.05746636783012352,0.056323374916863976,0,1,0
0.48096192384769537,-0.6382817018556244,1.4001884737483294,1.231928156358587,0.6531185769763496,0.25347841559981943,-1.4358974242806506,0.056427785933478726,0.056323374963626716,0,1,0
0.501002004008016,-0.6098698027107953,1.4205949572414556,1.2426482499912714,0.5360046816342221,0.22473293643127223,-1.4372739584273615,0.057514508360262485,0.056323374914496474,0,1,0
0.5210420841683366,-0.5810922194807306,1.4388791615032328,1.2510593431918915,0.42055466003100694,0.19509099316914913,-1.482097163106155,0.05632337490489074,0.05632337490488044,0,1,0
0.5410821643286573,-0.5520002757005339,1.454597189009836,1.2571604959133287,0.3050576360718645,0.1655079092523343,-1.4791541958407406,0.05812562515233227,0.056323374904880395,0,1,0
0.561122244488978,-0.5226375051787907,1.4681385260871591,1.2609928898857174,0.19161969861944406,0.13454232933181842,-1.5482789960257959,0.05632337490488122,0.05632337490488076,0,1,0
0.5811623246492986,-0.49305805721167867,1.4789723983556018,1.262543714296722,0.07754122055022646,0.10363987655942049,-1.5451226386198977,0.056678621627254906,0.05632337490488059,0,1,0
0.6012024048096192,-0.4633127597273301,1.487264874217427,1.2618304351218386,-0.035663958744169486,0.07251628303958177,-1.556179675991936,0.05632337490488087,0.05632337490488459,0,1,0
0.6212424849699398,-0.43345401097702024,1.492937437515494,1.2588584615628493,-0.14859867794946444,0.04145633551607984,-1.5529973761750961,0.05632337490488075,0.05635242117130606,0,1,0
0.6412825651302605,-0.4035340439677782,1.495998350462103,1.2536373166604708,-0.2610572451189217,0.010483050050057492,-1.5486642733011173,0.056323374904880985,0.05633145744434605,0,1,0
0.6613226452905812,-0.3736051930569909,1.4964425455393637,1.2461742182936149,-0.37315491834279946,-0.020420620600417556,-1.5451835325237524,0.0563233749048811,0.060417020053258864,0,1,0
0.6813627254509018,-0.3437190818582637,1.4943055599363602,1.2365356907850664,-0.48192637542742367,-0.047988014949198264,-1.378369717439036,0.058124898113318516,0.056323374904882484,0,1,0
0.7014028056112224,-0.31392904017141454,1.489502084342459,1.2246921573036063,-0.5921766740730057,-0.07694362738252547,-1.447780621666361,0.05632337490488252,0.061574947313047926,0,1,0
0.721442885771543,-0.284284816599662,1.4822111785876275,1.2106979169314256,-0.69971201860903,-0.10164304192119683,-1.2349707269335661,0.15324258417817177,0.15151840745016737,0,1,0
0.7414829659318637,-0.255050235619787,1.4617290489937487,1.1973148411562533,-0.6691537887586108,-0.1276772151486294,-1.3017086613716269,0.05632337490488204,0.05928992208725595,0,1,0
0.7615230460921844,-0.22605043414142312,1.4499900739181943,1.1817436332141746,-0.7785603971039299,-0.15129101690280963,-1.1806900877090107,0.1850885236020718,0.18605512150891396,0,1,0
0.781563126252505,-0.19781213231862327,1.4119150911399923,1.167739052815218,-0.7002290199478274,-0.17409056041017923,-1.1399771753684793,0.0563233749048834,0.06095006620405907,0,1,0
0.8016032064128256,-0.16989387339509585,1.3959129461763706,1.1515608719777737,-0.8089090418722227,-0.1931506809706681,-0.9530060280244441,0.184736590561583,0.18452221720388395,0,1,0
0.8216432865731462,-0.14298154189443202,1.3456165750331912,1.1368843259226753,-0.7338273027549214,-0.2123524894429211,-0.9600904236126536,0.05686599504063147,0.05882867564761607,0,1,0
0.8416833667334669,-0.11645274388217386,1.326439900612908,1.119999639193356,-0.8442343364659649,-0.22995433306019739,-0.8800921808638131,0.1383138943545192,0.1390277980599474,0,1,0
0.8617234468937875,-0.09084450221851116,1.280412083183135,1.1032461725811595,-0.8376733306098256,-0.24695866771465302,-0.8502167327227808,0.21367945180962233,0.21502943003635483,0,1,0
0.8817635270541082,-0.06673575149524363,1.2054375361633762,1.0887906737813453,-0.7227749399907075,-0.26285800655799385,-0.7949669421670492,0.16198677912884474,0.1645726313698422,0,1,0
0.9018036072144289,-0.04385605406896575,1.1439848713138943,1.0751341299703723,-0.6828271905486505,-0.276666094043414,-0.6904043742710038,0.2393873236599548,0.2426140205340302,0,1,0
0.9218436873747494,-0.0228745116046766,1.0490771232144573,1.064478551571138,-0.5327789199617198,-0.2878743971099364,-0.5604151533261232,0.23422582228205818,0.23877801871974266,0,1,0
0.9418837675350701,-0.0038435933124935442,0.9515459146091528,1.0566625081501195,-0.3908021710509163,-0.2954271800892677,-0.3776391489665621,0.2602685514650172,0.2643929534612228,0,1,0
0.9619238476953907,0.012949637033206427,0.8396615172849985,1.0523920598721106,-0.21352241390044815,-0.2996722115735909,-0.2122515742161596,0.18535120049551912,0.19040247861593335,0,1,0
0.9819639278557114,0.028097050470675927,0.757370671873475,1.0495335467150435,-0.14292565785335584,-0.2998721401349437,-0.00999642806763848,0.13545677459504116,0.138847888854576,0,1,0
1.002004008016032,0.0420233518727349,0.6963150701029487,1.0466417467746434,-0.14458999702000783,-0.2973590158011849,0.12565621668793783,0.21566450283485314,0.21933167382973046,0,1,0
1.0220440881763526,0.054026929451339634,0.6001788789302366,1.045990707789963,-0.032551949234012584,-0.29191442706713105,0.2722294367026956,0.09194317060206963,0.09388939689682188,0,1,0
1.0420841683366733,0.06520849186389557,0.5590781206277966,1.0440527552650911,-0.09689762624360172,-0.28491842178716087,0.3498002639985075,0.2367678346622853,0.23786043714659558,0,1,0
1.062124248496994,0.07435245617508035,0.4571982155592389,1.0449312916620717,0.043926819849024065,-0.2770559104778791,0.3931255654640885,0.07595488323028804,0.07788497768401334,0,1,0
1.0821643286573146,0.08284513536661442,0.4246339595767037,1.0440760282432016,-0.04276317094350307,-0.26765813410425493,0.4698888186812127,0.19173936098355993,0.19293791093356177,0,1,0
1.1022044088176353,0.08976932288494316,0.3462093759164373,1.0447833345402107,0.03536531485045129,-0.2573126110607103,0.5172761521772314,0.09924885012544146,0.1008665297113439,0,1,0
1.122244488977956,0.09590196549205116,0.30663213035539977,1.0444289869895693,-0.017717377532069818,-0.2456855712158614,0.5813519922424446,0.17652424050270438,0.17710631655861347,0,1,0
1.1422845691382766,0.10069496829210514,0.23965014000269916,1.0452215004539371,0.03962567321838578,-0.233607611155592,0.6038980030134701,0.0959449013932292,0.09648963815177801,0,1,0
1.1623246492985972,0.1047898098675359,0.20474207877153797,1.044858498284313,-0.01815010848121066,-0.22110939092641937,0.6249110114586336,0.16420252190147167,0.16438727324958838,0,1,0
1.1823647294589177,0.10775381622312892,0.14820031777965098,1.0453116167229892,0.022655921933814757,-0.2084796279584504,0.6314881483984458,0.08440489804124184,0.08484001823911132,0,1,0
1.2024048096192383,0.11016520750986859,0.12056956433698338,1.0442906087795307,-0.05105039717292863,-0.1955182808408959,0.6480673558777275,0.156917173042139,0.1568007424044256,0,1,0
1.222444889779559,0.11161247576146725,0.07236341257993324,1.0438975600527591,-0.019652436338581124,-0.182667159347721,0.6425560746587444,0.09948667432927268,0.09932992444337291,0,1,0
1.2424849699398797,0.1124862758515414,0.04369000450370769,1.0424741614681388,-0.07116992923102225,-0.16995831435819037,0.6354422494765335,0.13265152665862345,0.13217630259157898,0,1,0
1.2625250501002003,0.11264662563492168,0.008017489169014264,1.0409900975489865,-0.07420319595761714,-0.15764624558569038,0.6156034386249993,0.11391348459492139,0.11338241327273253,0,1,0
1.282565130260521,0.11223728029749307,-0.020467266871431165,1.0389061387851977,-0.1041979381894404,-0.1457749148060975,0.593566538979644,0.12397413593407548,0.12348665528026642,0,1,0
1.3026052104208417,0.11125274345553288,-0.049226842098009205,1.036524648884433,-0.1190744950382259,-0.13430867527397322,0.5733119766062129,0.11926214062158122,0.11895794841581836,0,1,0
1.3226452905811623,0.10975644902919941,-0.07481472131667345,1.0337170643370617,-0.14037922736856723,-0.12310020548647256,0.5604234893750342,0.12580609819456784,0.1255798386793677,0,1,0
1.342685370741483,0.10776284730688958,-0.0996800861154917,1.03068277929436,-0.15171425213507786,-0.1120867239085927,0.550674078893992,0.12635667578964596,0.12609710958757211,0,1,0
1.3627254509018036,0.10531189022804198,-0.12254785394237978,1.0274431164083897,-0.16198314429851585,-0.1012945453546974,0.5396089276947663,0.12822520206988114,0.12801049577158602,0,1,0
1.3827655310621243,0.10243869189196782,-0.1436599168037079,1.0240588351173434,-0.16921406455231808,-0.09068741442396575,0.5303565465365816,0.12394122663429594,0.12374532497136746,0,1,0
1.4028056112224447,0.09919724435242266,-0.16207237697725788,1.0204084834579008,-0.1825175829721333,-0.08024998216072265,0.5218716131621561,0.13248688163287028,0.13229612261876864,0,1,0
1.4228456913827654,0.095603769815408,-0.17967372685073324,1.0167483565239102,-0.18300634669953475,-0.06997785634153864,0.5136062909592001,0.12769420162973172,0.12738094562534805,0,1,0
1.442885771543086,0.0917109767884159,-0.1946396513496048,1.0129386381025047,-0.19048592107027218,-0.05996876046762953,0.5004547936954545,0.13783689961370527,0.1375520734058959,0,1,0
1.4629258517034067,0.08753688085891499,-0.20870479647504578,1.009282648925235,-0.18279945886348883,-0.05019952870271862,0.48846158824554636,0.1542021416607117,0.1536095657008673,0,1,0
1.4829659318637274,0.083093746588918,-0.22215671349985,1.0062623721278476,-0.15101383986935993,-0.040915967984906515,0.46417803589060525,0.15107916791206197,0.15050484523017113,0,1,0
1.503006012024048,0.07843092879836343,-0.23314088952772832,1.0037874435426075,-0.12374642926200502,-0.03210271984197938,0.44066240714635674,0.1427782910956625,0.14224827878850202,0,1,0
1.5230460921843687,0.07360010163806388,-0.24154135801497725,1.0016140992674551,-0.10866721375761723,-0.023723622609756637,0.41895486161113704,0.1708519370119938,0.17145582742154827,0,1,0
1.5430861723446894,0.0686113905432412,-0.249435554741134,1.0005915673734886,-0.05112659469832368,-0.014870941657663334,0.44263404760466496,0.18510373668245764,0.18531423433685087,0,1,0
1.56312625250501,0.0634975113159223,-0.2556939613659448,1.001136191249378,0.027231193794465515,-0.005860086123624379,0.4505427767019477,0.1289979517496352,0.12892507538060818,0,1,0
1.5831663326653307,0.05833195418645273,-0.25827785647347834,1.0015809267753464,0.022236776298423605,0.0030820141771790532,0.4471050150401716,0.12768388375590586,0.12723192070513506,0,1,0
1.6032064128256511,0.05314947010333668,-0.2591242041558024,1.00188167987315,0.015037654890184255,0.01165220636674427,0.42850960947826067,0.12999250994369954,0.12934823948274965,0,1,0
1.6232464929859718,0.04798404948278724,-0.2582710310274719,1.0021041968467423,0.011125848679615798,0.019697207034335057,0.40225003337953974,0.12646853345832887,0.12595074412209498,0,1,0
1.6432865731462925,0.042867402413560365,-0.2558323534613437,1.0021457807779672,0.002079196561243675,0.027318964756056347,0.38108788608606464,0.12683187691848677,0.12603592554215434,0,1,0
1.6633266533066131,0.03782968060160952,-0.25188609059754236,1.0020127858972667,-0.006649744035023669,0.03429555881810761,0.3488297031025632,0.12189258304181404,0.12092609963054342,0,1,0
1.6833667334669338,0.03289526713199661,-0.24672067348064536,1.001555895738188,-0.022844507953937422,0.04049145677800298,0.30979489799476867,0.11930578288947928,0.1181197210393035,0,1,0
1.7034068136272544,0.028086387359077404,-0.2404439886459601,1.0006948081662037,-0.04305437859922145,0.04573203118617874,0.2620287204087873,0.15774021986557463,0.15639006856271706,0,1,0
1.723446893787575,0.02347068134165525,-0.2307853008711077,1.0005645452324103,-0.006513146689671533,0.049887208379838115,0.20775885968296914,0.14524694911403976,0.14422696219768583,0,1,0
1.7434869739478958,0.01905557398793279,-0.22075536768612303,1.0007984292130911,0.011694199034044138,0.0532223883230712,0.1667589971616546,0.14308075969518097,0.14217427830404383,0,1,0
1.7635270541082164,0.01485551547456121,-0.21000292566857906,1.0013328276825355,0.02671992347221709,0.055829274105766914,0.13034428913478535,0.1341536048540446,0.13346401854333306,0,1,0
1.783567134268537,0.010870439808647728,-0.19925378329567403,1.0019057997291114,0.028648602328792516,0.057882135371710546,0.1026430632971809,0.13209327193778475,0.13136650035362202,0,1,0
1.8036072144288577,0.007106988458357144,-0.18817256751452918,1.0024552476292483,0.02747239500684677,0.059351769736891935,0.07348171825906939,0.1282935673719973,0.1276717475294977,0,1,0
1.8236472945891782,0.003566491490092797,-0.17702484841321733,1.0028699005144757,0.020732644261370208,0.060322686664811755,0.04854584639599158,0.1263883747215824,0.1258924081247778,0,1,0
1.8436873747494988,0.0002510283669401015,-0.16577315615763477,1.00309507465693,0.011258707122722745,0.0608960160615916,0.028666469838992844,0.12897669175134457,0.12845937928325943,0,1,0
1.8637274549098195,-0.0028314184346782557,-0.15412234008091785,1.0032069695504358,0.005594744675283277,0.06105502374015019,0.007950383927929499,0.1357447669273149,0.13530772540287775,0,1,0
1.8837675350701402,-0.0056666364923355795,-0.14176090288286616,1.0034069103415684,0.009997039556632795,0.060864269986101366,-0.009537687702441185,0.12879546143647264,0.12841403618730163,0,1,0
1.9038076152304608,-0.008266757710181944,-0.13000606089231823,1.0034900794792199,0.004158456882574309,0.06036853009674691,-0.024786994467722617,0.1345237644762581,0.1341629991846206,0,1,0
1.9238476953907815,-0.010622404877518744,-0.11778235836684002,1.0036263474667984,0.006813399378922037,0.05958458443177077,-0.039197283248807765,0.12726545137625977,0.12695723349700008,0,1,0
1.9438877755511021,-0.012748719566383066,-0.10631573444321608,1.0036018948544254,-0.0012226306186445181,0.0585547162785052,-0.05149340766327824,0.13730079433906056,0.13695412656960868,0,1,0
1.9639278557114228,-0.014631201266170723,-0.09412408498938282,1.003713289338768,0.005569724217120812,0.05724838037639221,-0.06531679510564957,0.1277827156192634,0.1275662580486923,0,1,0
1.9839679358717435,-0.01629065210871334,-0.08297254212713091,1.0036810507047322,-0.0016119317017840506,0.05576999189481374,-0.07391942407892195,0.13164360598339694,0.1313983004445785,0,1,0
2.004008016032064,-0.0177256948640346,-0.07175213776606307,1.0036193730446865,-0.0030838830022856378,0.05409662933269658,-0.08366812810585941,0.13029137710290423,0.13011066010576294,0,1,0
2.024048096192385,-0.018944468729139383,-0.06093869325523908,1.0034895583293217,-0.006490735768234028,0.05228014407098744,-0.09082426308545652,0.13403316873741394,0.13431065957042787,0,1,0
2.0440881763527052,-0.019947253491429177,-0.05013923811448973,1.0034095023824887,-0.004002797341651604,0.05068723628236612,-0.07964538943106642,0.1296683064929908,0.12973535380594095,0,1,0
2.064128256513026,-0.020748373693257913,-0.04005601009143677,1.003247280194338,-0.0081111094075368,0.04914934209646486,-0.07689470929506177,0.13321382964768588,0.13319464930160793,0,1,0
2.0841683366733466,-0.021348860464396786,-0.03002433855694362,1.0031069164126352,-0.007018189085144589,0.047597428571907,-0.0775956762278938,0.12959778825535512,0.1294976878021303,0,1,0
2.1042084168336674,-0.021760270614301948,-0.020570507495258083,1.0028804846219572,-0.011321589533898764,0.04596677264941666,-0.08153279612451618,0.13260263411677606,0.13248867280206605,0,1,0
2.124248496993988,-0.021984486117937647,-0.011210775181784996,1.0026570690361682,-0.011170779289451323,0.04424635868262534,-0.08602069833956624,0.13124371480211755,0.13109915879930656,0,1,0
2.1442885771543083,-0.022029929647572645,-0.0022721764817498855,1.002396290781489,-0.013038912733963104,0.042411794808838034,-0.0917281936893655,0.13223406514127617,0.13209744494014694,0,1,0
