time,x,x_dot,z,z_dot,theta,theta_dot,u1,u2,x_ref,z_ref,theta_ref
0.0,0.8063436218297209,-0.08646434752767339,1.172730814100364,-0.005491058804152682,0.0709711107755254,-0.09206838897907708,0.06705716661996397,0.05632337505304097,0,1,0
0.02004008016032064,0.8047439512507519,-0.07998352894844776,1.1705242513678125,-0.1103281366275837,0.060542710142286835,-0.52142003166193,0.0755951565144856,0.056323374904880645,0,1,0
0.04008016032064128,0.8032828665555066,-0.07305423476226514,1.1663471173961844,-0.20885669858140427,0.034697723066517874,-1.2922493537884474,0.07562819055540977,0.05632337490488019,0,1,0
0.06012024048096192,0.8019400607637817,-0.06714028958624954,1.1602012398842305,-0.307293875597696,-0.006585958334755542,-2.064184070063671,0.06948639968779374,0.05632337491111062,0,1,0
0.08016032064128256,0.800661913296054,-0.06390737338638625,1.1519980890334949,-0.41015754253678094,-0.05839108659860654,-2.59025641319255,0.06658954963640386,0.05632337490488045,0,1,0
0.1002004008016032,0.7993717733312576,-0.06450699823981353,1.1416958309166,-0.515112905844738,-0.11839813576842159,-3.0003524584907506,0.05660248769402933,0.05632337490488142,0,1,0
0.12024048096192384,0.797984001995872,-0.06938856676927987,1.1291436973404534,-0.6276066788073406,-0.17862807275583534,-3.011496849370688,0.05632337490488236,0.059787005674162584,0,1,0
0.1402805611222445,0.7963930431530964,-0.07954794213877915,1.11437967497807,-0.738201118119178,-0.236092130055685,-2.8732028649924835,0.15783187378993843,0.1677431173140172,0,1,0
0.16032064128256512,0.7939450761870728,-0.12239834830118201,1.1004422387836355,-0.6968718097217228,-0.28564028017205423,-2.477407505818461,0.10181399595150245,0.11733135527445128,0,1,0
0.18036072144288576,0.7907377138980589,-0.16036811445069532,1.0857413380304757,-0.7350450376579873,-0.3227897778787243,-1.8574748853335068,0.24453418750370562,0.25933368893161796,0,1,0
0.2004008016032064,0.7854270066955925,-0.26553536012332246,1.0742826872602322,-0.5729325385121736,-0.3481078433325555,-1.2659032726915593,0.10888625089820447,0.12018753013747116,0,1,0
0.22044088176352705,0.7790397766289823,-0.31936150333051094,1.0621224523704913,-0.6080117444870438,-0.36438778290825236,-0.8139969787848366,0.2853640037336794,0.29668288667480075,0,1,0
0.24048096192384769,0.7697110992694473,-0.466433867976753,1.0541479305030572,-0.3987260933717022,-0.3716138160710915,-0.3613016581419613,0.276320966100445,0.2930511281928138,0,1,0
0.2605210420841683,0.7573763283832023,-0.6167385443122458,1.0501347171939466,-0.2006606654555294,-0.3654560689883966,0.30788735413474805,0.21464524842796312,0.22571085493444218,0,1,0
0.280561122244489,0.7426726402107818,-0.7351844086210271,1.0482800004639357,-0.09273583650054261,-0.3504460045335872,0.7505032227404689,0.2025476801375814,0.2079092171991776,0,1,0
0.3006012024048096,0.725795809082447,-0.8438415564167406,1.048184553084249,-0.004772368984332323,-0.33114719360651323,0.9649405463536996,0.16865943111373613,0.17440377403129997,0,1,0
0.32064128256513025,0.7071740988362102,-0.9310855123118422,1.0489426126027006,0.03790297592257686,-0.3072537640974862,1.1946714754513508,0.1503365509913116,0.1525901923651882,0,1,0
0.3406813627254509,0.6870932774917691,-1.004041067222057,1.050024653271284,0.054102033429169506,-0.28155793610278923,1.2847913997348512,0.13426045809689033,0.13579282293863465,0,1,0
0.3607214428857715,0.6658024487880388,-1.0645414351865092,1.051000117284178,0.04877320064470081,-0.25463662092566036,1.3460657588564446,0.12157260456794053,0.12257677718674097,0,1,0
0.3807615230460922,0.6435066195726407,-1.114791460769908,1.051530184100368,0.026503340809486513,-0.22691225874844795,1.3862181088606216,0.11587873365437246,0.11678127795461664,0,1,0
0.4008016032064128,0.6203425591584889,-1.1582030207075877,1.051475922983584,-0.0027130558392033308,-0.1984661386060198,1.422306007121404,0.10278566770636215,0.1034589681948844,0,1,0
0.42084168336673344,0.5964911082533993,-1.1925725452544798,1.0504788129267564,-0.04985550284138293,-0.16948159598706636,1.449227130947676,0.10027457063541904,0.10058770547504074,0,1,0
0.4408817635270541,0.5720529436646523,-1.2219082294373502,1.0484790270324382,-0.09998929471590459,-0.14024665071534517,1.4617472635860582,0.10579793471821188,0.10662496878263282,0,1,0
0.4609218436873747,0.547083969186745,-1.2484487238953657,1.0456611578819766,-0.14089345752307847,-0.11035036091240966,1.4948144901467757,0.09864595503211845,0.09927525915645044,0,1,0
0.48096192384769537,0.5217051149811223,-1.2689427102811357,1.0418266655342496,-0.1917246173863469,-0.0799508527790777,1.5199754066665991,0.0833572809080843,0.08255347005450896,0,1,0
0.501002004008016,0.49605557667875133,-1.2824769151185473,1.0365151600198703,-0.26557527571896916,-0.050194096221167404,1.4878378278955133,0.09171860205210117,0.0911968852399099,0,1,0
0.5210420841683366,0.47018961357437106,-1.2932981552190144,1.029984857291236,-0.32651513643171554,-0.020854528341945632,1.466978393961089,0.08253558983849671,0.08138820552580839,0,1,0
0.5410821643286573,0.4442018052523942,-1.299390416098843,1.021959996637186,-0.40124303270250794,0.00756752713085389,1.421102773639976,0.10159063403323423,0.0990624992808834,0,1,0
0.561122244488978,0.41815200843936773,-1.302489840651326,1.0129871286013978,-0.4486434017894031,0.033967891651069476,1.320018226010779,0.13418260254513356,0.133673709296508,0,1,0
0.5811623246492986,0.392132241116121,-1.300988366162338,1.0040623885974913,-0.4462370001953212,0.05996128343935767,1.29966958941441,0.12292262637472537,0.12047103078946601,0,1,0
0.6012024048096192,0.36623493274974683,-1.2948654183187083,0.9948214005152811,-0.4620494041105089,0.08399406129664846,1.2016388928645392,0.1414566908288267,0.1404535470258103,0,1,0
0.6212424849699398,0.34058789952947977,-1.282351661013354,0.9858293547428737,-0.44960228862037016,0.10722455585644834,1.1615247279899934,0.13814155271524847,0.13634882986978586,0,1,0
0.6412825651302605,0.3152820287103113,-1.2652935409584234,0.9769694969195893,-0.4429928911642156,0.12902125910384346,1.0898351623697557,0.2065729698736452,0.20506030514584533,0,1,0
0.6613226452905812,0.29062879001999614,-1.2326619345157575,0.9702528871808951,-0.3358304869347138,0.1496081180221673,1.0293429459161896,0.15793907367826002,0.15607726520205933,0,1,0
0.6813627254509018,0.26657410647265234,-1.20273417736719,0.9642297045286652,-0.30115913261149685,0.1687058457761272,0.9548863876979984,0.11330604465126731,0.11062166746234064,0,1,0
0.7014028056112224,0.2430138906094504,-1.178010793160097,0.9575669121277556,-0.33313962004548037,0.18565646338890424,0.8475308806388532,0.20759981816020096,0.20528007229532402,0,1,0
0.721442885771543,0.22048071628169277,-1.1266587163878803,0.9530140188238813,-0.2276446651937185,0.2007515509103387,0.7547543760717204,0.18474078298642832,0.18175131890414123,0,1,0
0.7414829659318637,0.19894978522012757,-1.07654655307826,0.9498773335118901,-0.15683426559955987,0.2134553396344776,0.6351894362069472,0.18525866494436502,0.1824712500824037,0,1,0
0.7615230460921844,0.17850518740702553,-1.0222298906551026,0.9481590895601477,-0.08591219758711593,0.223929376406798,0.5237018386160202,0.15468886322173675,0.15267735748660333,0,1,0
0.781563126252505,0.15902520988035726,-0.9739988763334132,0.9469710748832887,-0.05940073384295009,0.23279429685945846,0.4432460226330231,0.15651498752874005,0.1543650287507038,0,1,0
0.8016032064128256,0.14056797048313954,-0.9228619698608863,0.9463536986048574,-0.030868813921562217,0.23993931787261208,0.35725105065768414,0.13970012776212512,0.13771234160980014,0,1,0
0.8216432865731462,0.12305885433887226,-0.8754558072133638,0.9458152767372234,-0.026921093381696078,0.2454941505553802,0.27774163413840175,0.1313710686784734,0.12944937970655412,0,1,0
0.8416833667334669,0.1064679949648433,-0.8295429687014477,0.9451101669854493,-0.03525548758871117,0.2495116557789335,0.20087526117766633,0.11944869693380376,0.11763717238159122,0,1,0
0.8617234468937875,0.09073077007398068,-0.7868612445431304,0.9438921299152929,-0.06090185350781788,0.25207995305615594,0.12841486386112033,0.1431297199603326,0.1410019731043714,0,1,0
0.8817635270541082,0.07603296528526507,-0.734890239435781,0.9428331005827727,-0.052951466626013764,0.252946058462582,0.04330527032130593,0.1577633175257679,0.15550638748899598,0,1,0
0.9018036072144289,0.062492720900570196,-0.6770122192347438,0.9423484275029477,-0.024233653991252668,0.2520066205167946,-0.046971897289368125,0.14754178104048335,0.1456011321841653,0,1,0
0.9218436873747494,0.05003930866170926,-0.6226706119430467,0.9421484198398352,-0.010000383155624588,0.2495146641710357,-0.124597817287945,0.15634706634750237,0.1543743078949476,0,1,0
0.9418837675350701,0.03873371360541638,-0.565279752814644,0.9424862927225247,0.016893644134474375,0.24544450596344128,-0.20350791037972257,0.15182577232434583,0.1494711257231525,0,1,0
0.9619238476953907,0.028530345993223974,-0.5101683806096203,0.9432295945042203,0.03716508908477685,0.2394906460778777,-0.2976929942781773,0.1453003696534955,0.14310165279386786,0,1,0
0.9819639278557114,0.019365172393509423,-0.4582586799857275,0.9441974658278627,0.048393566182119846,0.23177784388095965,-0.385640109845904,0.1391869659525325,0.1374520244438954,0,1,0
1.002004008016032,0.01117216083223625,-0.40965057806365857,0.9452267210898585,0.051462763099789456,0.22267712975973392,-0.4550357060612864,0.13727491954279664,0.13596657394384892,0,1,0
1.0220440881763526,0.003909013103217712,-0.36315738645092693,0.946275752536341,0.05245157232412603,0.21252978250349255,-0.5073673628120678,0.2282606403174967,0.2264896929707307,0,1,0
1.0420841683366733,-0.001866316561062985,-0.28876648321403486,0.9499754865308245,0.18498669972417456,0.2009657503100399,-0.5782016096726306,0.17089186751675622,0.1706859699697932,0,1,0
1.062124248496994,-0.006574236050472491,-0.23539597447047533,0.9547017758165797,0.23631446428775696,0.18923701109250557,-0.5864369608767173,0.14876691985648582,0.1486418761184664,0,1,0
1.0821643286573146,-0.010402637374281726,-0.19142006619046173,0.9598254461785246,0.25618351809724876,0.1774082437650498,-0.5914383663727915,0.13568937255782276,0.13549745145290848,0,1,0
1.1022044088176353,-0.013475292919755816,-0.15363277727370445,0.9649749774210722,0.2574765621273766,0.16542595029495744,-0.5991146735046158,0.12802997705877028,0.12788931813544105,0,1,0
1.122244488977956,-0.015878846171411692,-0.12017766258279378,0.969936397337333,0.2480709958130391,0.1533311377641671,-0.6047406265395163,0.12198034566679034,0.12205371532706806,0,1,0
1.1422845691382766,-0.01768705580325339,-0.090410481592085,0.9745437814287343,0.230369204570067,0.141295016668514,-0.6018060547826558,0.10494848910436072,0.10512718060953724,0,1,0
1.1623246492985972,-0.019019931014336584,-0.06664376055415969,0.9783068843151536,0.18815514432096161,0.12940183842243957,-0.5946589123037187,0.11120484027809525,0.11149120259997976,0,1,0
1.1823647294589177,-0.019888195162705513,-0.043413207418446426,0.981416309505313,0.15547125950796975,0.11773773383194835,-0.5832052295245619,0.10960477964000655,0.11022161073328873,0,1,0
1.2024048096192383,-0.020336213112683136,-0.022400897498881085,0.9838351936398437,0.1209442067265376,0.10656706054818578,-0.5585336641881308,0.1195520203459867,0.12006332537578782,0,1,0
1.222444889779559,-0.0203672438989182,-0.0015515393117531417,0.9858593587899372,0.10120825750467764,0.09580540576746661,-0.538082739035958,0.11195742497048657,0.11239113273981245,0,1,0
1.2424849699398797,-0.020044749652751142,0.016124712308352947,0.9872683513674598,0.07044962887613022,0.08539069711076586,-0.520735432835039,0.1148506564562594,0.11588451451371971,0,1,0
1.2625250501002003,-0.019395264660074657,0.03247424963382433,0.9881599670415513,0.044580783704573544,0.07580303004499483,-0.4793833532885507,0.13032986546143538,0.1310916249316314,0,1,0
1.282565130260521,-0.018415470853365888,0.048989690335438416,0.9889903824590237,0.04152077087362077,0.06682474254619927,-0.44891437493977654,0.12696047459512988,0.12764400420636138,0,1,0
1.3026052104208417,-0.017150027962514216,0.06327214454258355,0.9896618843607337,0.033575095085498385,0.058393256696904886,-0.42157429246471845,0.12161197622106124,0.12216151740548134,0,1,0
1.3226452905811623,-0.015643429817961747,0.07532990722762344,0.9900167848586168,0.017745024894154925,0.05040138816849625,-0.3995934264204323,0.13587454008749553,0.13621391133918048,0,1,0
1.342685370741483,-0.013901585700432257,0.08709220587647451,0.9904757550360896,0.022948508873642155,0.04268100797123007,-0.3860190098633097,0.12298089013100715,0.12337084204200206,0,1,0
1.3627254509018036,-0.011975871760370975,0.09628569700306408,0.9906597458767118,0.009199542031108902,0.03527258000568636,-0.37042139827718523,0.1282381920893859,0.1286045799711519,0,1,0
1.3827655310621243,-0.009887802554784804,0.10440346027930854,0.9907253495526799,0.0032801837984054527,0.028157254301941284,-0.3557662851872533,0.12579245135883058,0.12636952005599533,0,1,0
1.4028056112224447,-0.007667991733051391,0.11099054108667068,0.9906043624642269,-0.006049354422649597,0.021503571869676136,-0.3326841216132579,0.13725019017322665,0.1375958710362391,0,1,0
1.4228456913827654,-0.005333545535437671,0.11672230988068599,0.9906335548598199,0.0014596197796490577,0.01512642800632074,-0.3188571931677696,0.12799978439878887,0.12863301581748635,0,1,0
1.442885771543086,-0.0029173497589202358,0.12080978882587176,0.9905438356781808,-0.004485959081951397,0.009255858977065254,-0.2935284514627743,0.13829337687398388,0.13874217114023132,0,1,0
1.4629258517034067,-0.00043907400510001006,0.12391378769101129,0.9906378773043867,0.004702081310292246,0.003744319174002561,-0.2755769901531346,0.1304101578793075,0.1309591409907908,0,1,0
1.4829659318637274,0.002075041198037911,0.12570576015689605,0.9906838908280026,0.0023006761807922516,-0.0013280408104561548,-0.2536179992229358,0.13527728729686256,0.13575286123895594,0,1,0
1.503006012024048,0.004604190786518138,0.12645747942401134,0.9908251376646068,0.007062341830210613,-0.006019946535615229,-0.23459528625795364,0.13182165124109632,0.13228988678323925,0,1,0
1.5230460921843687,0.007128144066881241,0.12619766401815513,0.9909591445770424,0.006700345621776849,-0.010337267950143409,-0.2158660707264091,0.12111162995424063,0.12001546930934347,0,1,0
1.5430861723446894,0.009630592703119407,0.1251224318119083,0.990745340083302,-0.010690224687021205,-0.015531509707950844,-0.2597120878903718,0.12292295591991476,0.12314909303130063,0,1,0
1.56312625250501,0.012095357377844297,0.12323823373624447,0.9902568526495376,-0.024424371688219322,-0.02054484421712916,-0.2506667254589158,0.15412487094349978,0.15424067601573851,0,1,0
1.5831663326653307,0.01448917109059651,0.11969068563761066,0.9904161926903896,0.007967002042603956,-0.025465535832749818,-0.2460345807810328,0.11868483161633261,0.11911476561412479,0,1,0
1.6032064128256511,0.016810611292296253,0.11607201008498721,0.990177746249842,-0.011922322027378755,-0.030042284414160535,-0.22883742907053628,0.15479277799232577,0.1553567933730472,0,1,0
1.6232464929859718,0.019015054880608555,0.1102221794156151,0.9906126185027315,0.021743612644478345,-0.03416782541667388,-0.20627705012566766,0.11853640005772789,0.11913050728367644,0,1,0
1.6432865731462925,0.021113735760107995,0.10493404397497198,0.9906468931793068,0.001713733828764226,-0.03781808468312572,-0.18251296332259176,0.15410950074977608,0.15463347324981758,0,1,0
1.6633266533066131,0.02305616443835339,0.09712143391226967,0.9913324681823672,0.03427875015302122,-0.04104916874218744,-0.1615542029530853,0.12201424734254593,0.12264633171975642,0,1,0
1.6833667334669338,0.02486155031461961,0.09026929381331114,0.9917200526996844,0.01937922586586239,-0.04377458793903857,-0.13627095984255724,0.15438531870110236,0.15533272836332562,0,1,0
1.7034068136272544,0.026478638440029473,0.08085440627049309,0.9927721874532175,0.05260673767665407,-0.04574208222101881,-0.09837471409901113,0.11329483808844919,0.11395891620942143,0,1,0
1.723446893787575,0.02794839674778028,0.07348791538754028,0.9932678193265897,0.024781593668612774,-0.047178315034488445,-0.07181164067348231,0.1401436571173052,0.1410752895475587,0,1,0
1.7434869739478958,0.029227650539424204,0.06396268958219628,0.9940053000207412,0.03687403470757099,-0.04786924267245055,-0.03454638189810508,0.11095612752964776,0.11161647206532778,0,1,0
1.7635270541082164,0.030351397585970365,0.05618735232730807,0.9941164836070859,0.005559179317240856,-0.048031894807963015,-0.008132606775622702,0.13853018296845568,0.139159293947112,0,1,0
1.783567134268537,0.031278289686110065,0.04634460500698493,0.9944168728214364,0.015019460717527284,-0.04769125816720787,0.01703183203775692,0.11725019007534931,0.11774150071275262,0,1,0
1.8036072144288577,0.032038029835635765,0.03798700747628479,0.9942746053334278,-0.007113374400431553,-0.046957573039333414,0.03668425639372255,0.13485546454656405,0.1352693607146436,0,1,0
1.8236472945891782,0.03260698909846116,0.028447963141269655,0.9942096369558281,-0.0032484188799853622,-0.04589277106611449,0.05324009866094709,0.12445809807509578,0.12484109285131781,0,1,0
1.8436873747494988,0.03300258268304986,0.019779679229435007,0.9939139187614288,-0.014785909719968699,-0.04452157344561418,0.06855988102501509,0.13395900641239478,0.13427876097504268,0,1,0
1.8637274549098195,0.03321586732344076,0.010664232019545224,0.9936679093515136,-0.012300470495758496,-0.04289457241547435,0.08135005150699172,0.1289128656549489,0.12922008227836476,0,1,0
1.8837675350701402,0.033258949168291654,0.0021540922425446283,0.9933223022887322,-0.017280353139068175,-0.04102179841189902,0.0936387001787668,0.1332332361268038,0.13347085388795255,0,1,0
1.9038076152304608,0.033132599161047674,-0.006317500362198856,0.993004232519172,-0.015903488478008727,-0.038958930532761574,0.10314339395687229,0.1316335062705757,0.13183442345586763,0,1,0
1.9238476953907815,0.03284617660099828,-0.01432112800246996,0.9926661076456628,-0.01690624367546316,-0.036735329247385685,0.11118006426879404,0.13304941539591253,0.1332032439599866,0,1,0
1.9438877755511021,0.03240612004006853,-0.022002828046487496,0.9923494735276945,-0.015831705898413352,-0.034388665414986544,0.1173331916199567,0.13326131895612642,0.1333971938630707,0,1,0
1.9639278557114228,0.03182097332798193,-0.02925733560432996,0.9920606706289652,-0.01444014493646753,-0.03193330195632795,0.12276817293293026,0.1336225761399672,0.13372819286474086,0,1,0
1.9839679358717435,0.031099648479955267,-0.036066242401333014,0.9918102781406846,-0.012519624414030567,-0.029393445372547542,0.12699282918902013,0.1342570359830044,0.13434043954762456,0,1,0
2.004008016032064,0.03025127553388206,-0.04241864730366033,0.9916170788070798,-0.009659966680236337,-0.026786866152281142,0.13032896101331998,0.135255451587192,0.13530507414562684,0,1,0
2.024048096192385,0.029285101685193736,-0.048308692434416184,0.9915104521465481,-0.005331333026589661,-0.024140589020126096,0.13231385660775255,0.1413421260224375,0.14150584053388007,0,1,0
2.0440881763527052,0.02820669517617901,-0.053920325450736356,0.9916726624607813,0.008110515711664459,-0.021363340737399584,0.13886241413632577,0.13957926420256836,0.13971462310811636,0,1,0
2.064128256513026,0.027028412161971924,-0.058914150710354364,0.9920513543970507,0.01893459681346646,-0.018477805747849577,0.14427674947750022,0.13631355603865078,0.13637870997060988,0,1,0
2.0841683366733466,0.025763830263654555,-0.0632290949158684,0.9925490099043854,0.024882775366736977,-0.015540147829728998,0.14688289590602885,0.13283059383849274,0.1328502120683625,0,1,0
2.1042084168336674,0.024426523639857395,-0.06686533118985795,0.993062005435288,0.02564977654512816,-0.012586795395433396,0.14766762171478007,0.13271632802020672,0.13265152622454152,0,1,0
2.124248496993988,0.023028125316746906,-0.06991991615552445,0.9935859018880588,0.02619482263854351,-0.009685284171582036,0.14507556119256804,0.13265789786216298,0.13257934765375473,0,1,0
