time,x,x_dot,z,z_dot,theta,theta_dot,u1,u2,x_ref,z_ref,theta_ref
0.0,-0.7548689806522568,-0.0483773850454454,0.9057707278211311,0.09383678962888439,-0.13507315008577328,0.0714587347113543,0.05632337490511588,0.1184179873794244,0,1,0
0.02004008016032064,-0.756184282380448,-0.06576508640956064,0.9062909848786547,0.026012852876176745,-0.08396951097166111,2.555181955705609,0.05632337490488045,0.06982817780018696,0,1,0
0.04008016032064128,-0.757750130350396,-0.07829239849739998,0.9047426851814991,-0.07741498485777452,-0.02222148073400835,3.087401511882637,0.056323374904880666,0.06225924566809567,0,1,0
0.06012024048096192,-0.7594619303477068,-0.08558999986554348,0.9010263502946113,-0.18581674434439244,0.04406428432276827,3.3142882528388307,0.12394997341963877,0.12511835711708796,0,1,0
0.08016032064128256,-0.7612540690635595,-0.08960693579263462,0.8970825869143766,-0.1971881690117382,0.11105392291741631,3.349481929732403,0.21633069540208533,0.2124314171309587,0,1,0
0.1002004008016032,-0.7627646563924255,-0.07552936644330069,0.8955685274466795,-0.07570297338485556,0.17469803948386997,3.182205828322682,0.2826857282604906,0.27487285493851366,0,1,0
0.12024048096192384,-0.7633584708798823,-0.02969072437283808,0.8983450522747134,0.1388262414016984,0.23189157353627038,2.859676702620021,0.2966828866748004,0.2855295572431694,0,1,0
0.1402805611222445,-0.762452560657552,0.04529551111651578,0.9056931239203824,0.3674035822834475,0.28000043469281877,2.4054430578274193,0.2966828866747985,0.2852671997948244,0,1,0
0.16032064128256512,-0.7595662639676561,0.14431483449479088,0.9175038561204906,0.5905366100054125,0.31885624719209493,1.9427906249638107,0.2966828866747998,0.2855432954932375,0,1,0
0.18036072144288576,-0.7542999505695176,0.2633156699069289,0.9336690486716515,0.8082596275580444,0.348715637592007,1.4929695199955972,0.2966828866747998,0.285560769007203,0,1,0
0.2004008016032064,-0.746337400082837,0.3981275243340313,0.9540813591196488,1.0206155223998634,0.36962174924163477,1.0453055824813935,0.26019549735166,0.24754824902797024,0,1,0
0.22044088176352705,-0.7358179539332524,0.5259723074792269,0.9776088402843153,1.1763740582333286,0.3803780657134396,0.5378158235902348,0.26019549735166,0.24754824902797024,0,1,0
0.24048096192384769,-0.7226003024328288,0.6608825750211796,1.0041873608474272,1.3289260281556,0.38100393584028114,0.03129350634207517,0.10831273874310135,0.10539969066105292,0,1,0
0.2605210420841683,-0.7082334324660334,0.7183434983397686,1.0297328708547304,1.2772755003651644,0.37929885159328924,-0.08525421234958955,0.09544771579553023,0.09346318490176471,0,1,0
0.280561122244489,-0.6928542023269983,0.7689615069517548,1.0539059882426627,1.2086558693966145,0.37600762529900117,-0.16456131471441232,0.08458302322742467,0.08000217163265727,0,1,0
0.3006012024048096,-0.6766020733737897,0.8126064476604307,1.0763770599018063,1.123553582957184,0.3690548038448948,-0.3476410727053072,0.07068096707104646,0.0682020940514021,0,1,0
0.32064128256513025,-0.6596254301664386,0.848832160367559,1.0967990117848476,1.0210975941520657,0.36012642783412313,-0.44641880053858957,0.06115862801095545,0.05889083074875642,0,1,0
0.3406813627254509,-0.6420388327967577,0.8793298684840449,1.1149216935797892,0.9061340897470845,0.34939421766141526,-0.5366105086353921,0.06119537376244603,0.0569675204148776,0,1,0
0.3607214428857715,-0.6238671845607112,0.9085824118023216,1.1307298379317932,0.7904072176001922,0.3352931125762604,-0.7050552542577501,0.06061877295336069,0.05794274050981542,0,1,0
0.3807615230460922,-0.6051262914953276,0.937044653269181,1.1442404475513308,0.6755304809768844,0.31907062890512844,-0.8111241835565929,0.058254149446312735,0.056323374904884156,0,1,0
0.4008016032064128,-0.5858591727414908,0.9633559376918391,1.1554106838911065,0.5585118169887813,0.30132723410818885,-0.887169739846979,0.06041156857519214,0.056323374904882706,0,1,0
0.42084168336673344,-0.5660821440014701,0.9888514370010367,1.1642841520219624,0.4436734065427992,0.28034058754864793,-1.049332327977044,0.06013986391935239,0.05632337490488204,0,1,0
0.4408817635270541,-0.5458260124272866,1.0128065787091727,1.1708704691099137,0.32931585439755934,0.25633582953372996,-1.2002379007458968,0.05815142808158884,0.056323374904882303,0,1,0
0.4609218436873747,-0.5251341109965529,1.03459507153668,1.1751556219174335,0.21425764037598888,0.23091130376770322,-1.2712262883013379,0.05835166479356955,0.05632337490488321,0,1,0
0.48096192384769537,-0.5040455199421596,1.0544295527196672,1.177157103708327,0.10007408954467277,0.203910866900631,-1.3500218433536157,0.0571548950165515,0.05632337490488253,0,1,0
0.501002004008016,-0.4826069107082799,1.0719304616939884,1.176871827009912,-0.014263834920742152,0.1762962182188226,-1.3807324340904188,0.0569780075974762,0.05632337490488503,0,1,0
0.5210420841683366,-0.4608639332032215,1.0871488752529186,1.1743107864242697,-0.12805202928211676,0.14821065804009595,-1.4042780089363316,0.056323374904884496,0.05801126656935415,0,1,0
0.5410821643286573,-0.4388603168086542,1.1001808197283631,1.1695016294333442,-0.24045784954627014,0.12152889854161283,-1.3340879749241554,0.056901662239404974,0.056323374904886626,0,1,0
0.561122244488978,-0.4166464262746553,1.110694526699946,1.162439670800968,-0.35309793161880887,0.09443449641891798,-1.3547201061347434,0.05649487039871745,0.05632337490489222,0,1,0
0.5811623246492986,-0.3942683970314918,1.1189014621581752,1.1531290001968486,-0.46553353020597416,0.06725398856029652,-1.359025392931072,0.06182179169836642,0.06262991824540624,0,1,0
0.6012024048096192,-0.37175611291063665,1.1256142060427579,1.1417503189605342,-0.5689340618157199,0.04077103874835284,-1.3241474905971828,0.0563233749049208,0.05797023687071647,0,1,0
0.6212424849699398,-0.34917076186537505,1.1292675522630795,1.128161632350497,-0.6794343305018647,0.015654356233393923,-1.255834125747946,0.15505756251724268,0.15495937117524616,0,1,0
0.6412825651302605,-0.32644008827089127,1.136533679724189,1.115267170278892,-0.6447231035802486,-0.009495527324329095,-1.2574941778861508,0.07056963392576149,0.07130435376317408,0,1,0
0.6613226452905812,-0.30371845877851644,1.1360814746187422,1.1005780821061486,-0.73445440863718,-0.03401240031978451,-1.2258436497727703,0.21475547812079748,0.2149366185138732,0,1,0
0.6813627254509018,-0.2811000428940868,1.130920794221483,1.0883621643353667,-0.6107958885390979,-0.05834074797045246,-1.2164173825333973,0.12475103664319288,0.12756345187761908,0,1,0
0.7014028056112224,-0.2586500928881629,1.1224975002961954,1.0759844109067696,-0.6188876714298521,-0.08037669181560073,-1.1017971922574135,0.10892481192736332,0.1103121301187652,0,1,0
0.721442885771543,-0.23643050463061022,1.1109794128776322,1.0629516811933772,-0.651636485669612,-0.10126599849278246,-1.0444653338590881,0.2792614280191865,0.2817058419353571,0,1,0
0.7414829659318637,-0.214918848476367,1.0755828077121607,1.0543066020653604,-0.43225395640084074,-0.12016603471244326,-0.9450018109830384,0.15239006737984873,0.15434649678555834,0,1,0
0.7615230460921844,-0.19390374197209195,1.0507553252137527,1.046277421163318,-0.40145904510212965,-0.1374717984596631,-0.8652881873609927,0.14572462087668803,0.14870114801874662,0,1,0
0.781563126252505,-0.1734472456736503,1.0228248149220824,1.0386722975535465,-0.38025618048856674,-0.15237087287096263,-0.7449537205649783,0.16781526798914867,0.1693813099248547,0,1,0
0.8016032064128256,-0.15370955265186312,0.9868846510893595,1.0321082725331476,-0.32820125101994235,-0.1659964542288388,-0.6812790678938079,0.1784574058354917,0.18142027571064487,0,1,0
0.8216432865731462,-0.1348133007229526,0.9448125964455246,1.0269047103522067,-0.2601781090470532,-0.17723363299019967,-0.5618589380680431,0.06492869903478989,0.06546591238469333,0,1,0
0.8416833667334669,-0.11626617685318309,0.927356193488476,1.0196946087969594,-0.3605050777623617,-0.1880270274956679,-0.5396697252734113,0.13709222400382337,0.13689469610450275,0,1,0
0.8617234468937875,-0.09846429620630541,0.8900940323438842,1.0125714953458878,-0.35615567255358177,-0.19896514050618477,-0.5469056505258468,0.2049134538522951,0.20702228045723825,0,1,0
0.8817635270541082,-0.08183104326683038,0.8316626469737513,1.007534733791483,-0.2518380777202371,-0.20820275697094576,-0.4618808232380486,0.162801682231313,0.16592434089627492,0,1,0
0.9018036072144289,-0.06618524259981556,0.7822900333507411,1.0033594408104543,-0.20876464905143982,-0.2149315496547606,-0.3364396341907431,0.18907794469270303,0.19256144930473978,0,1,0
0.9218436873747494,-0.0517307677192879,0.7227237440263834,1.0008020074308759,-0.1278716689789171,-0.21886640763725143,-0.19674289912454207,0.13315809044942215,0.13606112858079444,0,1,0
0.9418837675350701,-0.03814699866407692,0.6791884527605487,0.9982247846230116,-0.12886114039321342,-0.22047508588324607,-0.08043391229973706,0.21090095398399192,0.21396896544628616,0,1,0
0.9619238476953907,-0.025948262702857668,0.6099367980609627,0.9978752609105516,-0.01747618562300264,-0.2196279676788272,0.04235591022094595,0.11554687310762507,0.11746448837856283,0,1,0
0.9819639278557114,-0.014520173992502541,0.5714044355177563,0.9969746468379752,-0.045030703628817115,-0.2172474642070152,0.11902517359059768,0.1978228732705561,0.20007396536196073,0,1,0
1.002004008016032,-0.004390740717399566,0.5064716637551487,0.9979083334498875,0.046684330595615525,-0.21306822323927074,0.2089620483872242,0.11203308635700616,0.11301843947307938,0,1,0
1.0220440881763526,0.005007827505539136,0.46992841114693507,0.998176620057935,0.013414330402374393,-0.20810474869763684,0.24817372708169233,0.20733755855240482,0.20729242260475778,0,1,0
1.0420841683366733,0.01309641552896077,0.40442940117108167,1.0005283516302306,0.11758657861478566,-0.203182338692036,0.2461205002800438,0.07643401945008324,0.07814949542876609,0,1,0
1.062124248496994,0.020702653701328275,0.3803119086183753,1.001198124360339,0.03348863650542372,-0.19689247166263638,0.3144933514699845,0.19437299771128336,0.19456881166534412,0,1,0
1.0821643286573146,0.02713776539732428,0.32175558479980026,1.003590727615719,0.119630162768997,-0.1904525709592935,0.3219950351671413,0.10030993624882605,0.10077360977821853,0,1,0
1.1022044088176353,0.03298319846320726,0.2922716532941493,1.0049822183106776,0.06957453474792555,-0.1836485499375104,0.34020105108916,0.16825215161683071,0.16830250281659587,0,1,0
1.122244488977956,0.037878684932201104,0.24477432344969222,1.007348102791427,0.11829422403747511,-0.1768115438930459,0.3418503022232206,0.09296459379159257,0.09352208317975641,0,1,0
1.1422845691382766,0.04226465964044252,0.21929873541207098,1.0085078867862933,0.05798919974331267,-0.1695358961526064,0.36378238702197757,0.14957867919580203,0.14963515353400045,0,1,0
1.1623246492985972,0.04586663724219576,0.18009888008766184,1.0101102205644688,0.08011668890876596,-0.1622230080574082,0.36564440475990667,0.10584794032426689,0.10614654643193693,0,1,0
1.1823647294589177,0.04893525781882501,0.15343102883146256,1.0108866517966084,0.03882156160697905,-0.15467923090721758,0.3771888575095326,0.13480892236902547,0.1347744846982635,0,1,0
1.2024048096192383,0.05135598208431778,0.12103621327463851,1.011683755575969,0.03985518896802688,-0.1471713144742028,0.37539582165073937,0.10897454579820567,0.1091636614684838,0,1,0
1.222444889779559,0.05327664057548985,0.0960329245586034,1.0117532345651417,0.0034739494586313036,-0.1395203708543639,0.3825471809919442,0.13073460844652657,0.1309689512739539,0,1,0
1.2424849699398797,0.05462707605390234,0.06752177392062451,1.0117378304234754,-0.0007702070833143435,-0.1316904206918787,0.391497508124258,0.11457493069256056,0.11477260729223604,0,1,0
1.2625250501002003,0.05550384059360434,0.04383822698509994,1.011167164247205,-0.028533308813511064,-0.12371105038201775,0.3989685154930511,0.12347305228261626,0.12362335886521839,0,1,0
1.282565130260521,0.055899181733421975,0.019767056990881732,1.0103059694100895,-0.04305974185577711,-0.1156203689441538,0.40453407189319845,0.12668005905221674,0.12678707451706206,0,1,0
1.3026052104208417,0.05583083215090237,-0.003417479125980071,1.0092518668642954,-0.0527051272897072,-0.10745316884644604,0.40836000488538726,0.12703160362487287,0.12711591657252327,0,1,0
1.3226452905811623,0.05532818155080912,-0.025132530004662746,1.0080186622260514,-0.06166023191219572,-0.09922772252635133,0.41127231600473607,0.12391302497379601,0.12391168560756757,0,1,0
1.342685370741483,0.05443220673397873,-0.0447987408415195,1.006516811647782,-0.07509252891347146,-0.0910126343385271,0.4107544093912108,0.12440573968446489,0.12439368339826504,0,1,0
1.3627254509018036,0.05317186608655804,-0.06301703237103462,1.0047640538400067,-0.08763789038876635,-0.08281646243150466,0.4098085953511226,0.13109328707007273,0.13097333915459455,0,1,0
1.3827655310621243,0.05155977647806882,-0.08060448042446067,1.0029592494038915,-0.09024022180575933,-0.07472548966045135,0.4045486385526663,0.12710831443266424,0.12691928491427124,0,1,0
1.4028056112224447,0.04963781959052023,-0.09609784437742973,1.0009865370614206,-0.09863561712354496,-0.06679482688592907,0.39653313872611307,0.15963110691569485,0.15918769981761294,0,1,0
1.4228456913827654,0.047364993843108175,-0.11364128737060283,0.9998056808818924,-0.05904280897641146,-0.05922773898112523,0.37835439524019143,0.13654656543802382,0.13632165804715196,0,1,0
1.442885771543086,0.044824402381331355,-0.12702957308884086,0.9987393680312271,-0.05331564253326437,-0.0518489159406026,0.3689411520261323,0.14144749875149085,0.14110600781751573,0,1,0
1.4629258517034067,0.04203834231600183,-0.13930300326647618,0.9979326637236761,-0.04033521537755229,-0.04475135914945735,0.35487783955726243,0.14681095709882688,0.14648723981440284,0,1,0
1.4829659318637274,0.0390296435097786,-0.1504349403111614,0.9975460175878402,-0.019332306791792358,-0.03792046272069213,0.34154482143826054,0.14171364933833808,0.14144785762013776,0,1,0
1.503006012024048,0.03583604809248424,-0.15967977086471788,0.9974305130576382,-0.005775226510103201,-0.03130952586846805,0.330546842611204,0.13905990986856576,0.13880212019777224,0,1,0
1.5230460921843687,0.032489354569650464,-0.16733467614168868,0.9975086309039133,0.0039058923137542043,-0.024911853175036205,0.31988363467159253,0.13433490204997095,0.13529996594362043,0,1,0
1.5430861723446894,0.029020738231879235,-0.17343081688856143,0.9976593086710278,0.007533888355725235,-0.017748900513379726,0.35814763308282377,0.17186040971326702,0.1726061138902909,0,1,0
1.56312625250501,0.025428261279691035,-0.1796238476094101,0.9989914692830034,0.06660803059878151,-0.009997182491830825,0.3875859010774452,0.09094457383874095,0.09069883856214615,0,1,0
1.5831663326653307,0.021791448871310095,-0.18184062041904706,0.9990929496605075,0.005074018875203749,-0.0024506517246958106,0.37732653835675056,0.14528388027596517,0.14510542491281378,0,1,0
1.6032064128256511,0.01811506737457928,-0.1838190748365408,0.9995761828857318,0.0241616612612101,0.004944803587628441,0.36977276561621253,0.13588175647882075,0.13540760248422537,0,1,0
1.6232464929859718,0.014432322856047404,-0.18413722592659376,1.0001580473966791,0.029093225547361958,0.011952842002905428,0.3504019207638495,0.11357210749597578,0.11320103539025857,0,1,0
1.6432865731462925,0.010769686271827976,-0.18313182921097143,1.0001789206824008,0.001043664286085582,0.01865645908864535,0.33518085428699584,0.1333020588074369,0.1327925057475704,0,1,0
1.6633266533066131,0.00715763507664453,-0.18060255975917225,1.0002216343041148,0.002135681085698825,0.024945282453084375,0.31444116822195145,0.1623181453336943,0.16153793513128203,0,1,0
1.6833667334669338,0.00363850146829403,-0.175956680417525,1.0011413404848508,0.04598530903679844,0.03060333696774355,0.2829027257329584,0.09072888904893817,0.09003207558324557,0,1,0
1.7034068136272544,0.00018949022380043874,-0.17245056222467955,1.00081728415262,-0.01620281661154596,0.03569814264610494,0.25474028391806997,0.1544512341259307,0.153987223914719,0,1,0
1.723446893787575,-0.003116465033818923,-0.1652977628809681,1.001140850978179,0.016178341277945117,0.04041663084699572,0.23592441004453873,0.09683673022918818,0.09607253736540844,0,1,0
1.7434869739478958,-0.006317335672163421,-0.16004353191722487,1.000400210224191,-0.037032037699402276,0.04451910620679355,0.2051237679898913,0.16912472055961203,0.1682042548019108,0,1,0
1.7635270541082164,-0.009313299197438429,-0.14979817626375042,1.0007336444825703,0.01667171291896901,0.04788125996474664,0.16810768789765504,0.10783537296478538,0.10701841777231194,0,1,0
1.783567134268537,-0.01216484634112021,-0.14257735718408904,1.0003266371378579,-0.020350367235616597,0.050586711376635764,0.1352725705944555,0.16535726945250412,0.16429671464377632,0,1,0
1.8036072144288577,-0.014780032326032366,-0.13075929924560784,1.0008781677963925,0.027576532926730617,0.052441264906850936,0.0927276765107584,0.10879491190263078,0.108087710478072,0,1,0
1.8236472945891782,-0.01723037694863409,-0.1225172311300862,1.0007181638755995,-0.008000196039649368,0.053728437052809636,0.06435860729793487,0.15743716602773816,0.15673268600491846,0,1,0
1.8436873747494988,-0.01943455152051013,-0.11020872859380192,1.001286273361759,0.028405474307973626,0.05445092963721128,0.036124629220082506,0.11147972905334255,0.11099669017825461,0,1,0
1.8637274549098195,-0.021459761175942633,-0.10126048277162512,1.0012250674516554,-0.0030602955051775294,0.05478639234852471,0.016773135565670724,0.15271431735948018,0.1521935474893575,0,1,0
1.8837675350701402,-0.023237344844383213,-0.08887918342202895,1.0017543742116892,0.02646533800169437,0.054704966315609775,-0.0040713016457457965,0.11373951299054316,0.11339419290721675,0,1,0
1.9038076152304608,-0.024829113648993262,-0.0795884402305024,1.001723113290421,-0.0015630460634143452,0.05434734962298236,-0.01788083463137047,0.14827792243168056,0.14802767180106063,0,1,0
1.9238476953907815,-0.02617948835187073,-0.06751873514387347,1.0021550251137352,0.021595591165715036,0.05378982364759641,-0.027876298769298334,0.11540128518447126,0.11520628897161117,0,1,0
1.9438877755511021,-0.027343124814953382,-0.05818182315413254,1.0020779312504973,-0.003854693161902574,0.053076759180345615,-0.0356532233625401,0.14720516021956676,0.14678144582753128,0,1,0
1.9639278557114228,-0.028271615152587276,-0.04642451688169467,1.0024299605285931,0.017601463904792232,0.052025314075641184,-0.05257225523522134,0.12061782112068319,0.12032439032989213,0,1,0
1.9839679358717435,-0.029009956513604118,-0.0369170680508421,1.0024261817099482,-0.00018894093224927633,0.050740009845599655,-0.06426521150207676,0.14411786025582968,0.14372560744802998,0,1,0
2.004008016032064,-0.029525931434538355,-0.025798746046711903,1.0027609839844864,0.016740113726911303,0.049141997952158206,-0.07990059467207282,0.12032834844196513,0.12020167882590108,0,1,0
2.024048096192385,-0.029860751106387647,-0.0167409835924646,1.0027343318921478,-0.0013326046169356044,0.0474440310504174,-0.08489834508704072,0.13618631501495299,0.13649147052620966,0,1,0
2.0440881763527052,-0.029996860816736956,-0.006805485517465442,1.002822495584747,0.004408184629961181,0.04599166190291779,-0.07261845737498003,0.13076709732684944,0.13087013795328112,0,1,0
2.064128256513026,-0.029949031589298018,0.002391461371946976,1.002862333747303,0.0019919081278022,0.04462297143995874,-0.06843452314795245,0.1287994212038053,0.12871511776315558,0,1,0
2.0841683366733466,-0.029725843014676304,0.011159428731085726,1.0027931360193965,-0.0034598863953339276,0.04318800817253817,-0.07174816337102853,0.13335894468146398,0.1332013766400725,0,1,0
2.1042084168336674,-0.029326675572999346,0.01995837208384791,1.002749105061231,-0.0022015479082791757,0.041628220937154556,-0.07798936176918075,0.13147996672542875,0.1312885226051629,0,1,0
2.124248496993988,-0.02875976098646814,0.028345729326560425,1.002674346612803,-0.0037379224214012336,0.03991662373907378,-0.08557985990403792,0.1319764771186043,0.1317680140870701,0,1,0
2.1442885771543083,-0.028030704850730958,0.036452806786859054,1.0025835904460003,-0.004537808340134461,0.038039742820371994,-0.09384404593508998,0.13182417087079465,0.13162035852106987,0,1,0
