time,x,x_dot,z,z_dot,theta,theta_dot,u1,u2,x_ref,z_ref,theta_ref
0.0,-0.32410088223255085,-0.008300888779329413,1.4350068508498128,0.08936513914937844,-0.16128587452480628,-0.09982159568371891,0.06071623500867819,0.056323375306054725,0,1,0
0.02004008016032064,-0.3245452012202784,-0.022215949386377526,1.4345840121166054,-0.021141936660372368,-0.1667948374280019,-0.2754481451597841,0.05632337490488019,0.06399848863046811,0,1,0
0.04008016032064128,-0.3252754085238255,-0.03651036517735541,1.4320009335749564,-0.12915392708244602,-0.1661581819236105,0.03183277521956979,0.05632337490626752,0.07700258494717074,0,1,0
0.06012024048096192,-0.32633288085387585,-0.05287361650251757,1.4274479863661704,-0.22764736043929432,-0.14897868779416104,0.8589747064724729,0.05632337490546856,0.0650685553295812,0,1,0
0.08016032064128256,-0.3276867551048072,-0.06769371254656695,1.4207531632130959,-0.334741157653723,-0.12482963121696189,1.2074528288599553,0.056323374904880215,0.06062788405537015,0,1,0
0.1002004008016032,-0.3292963447474228,-0.08047948213077948,1.4118589444763512,-0.4447109368372381,-0.09728061822666254,1.3774506495149685,0.056323374906680546,0.0598973109428009,0,1,0
0.12024048096192384,-0.3311184371752034,-0.0911046213890306,1.4007634473302946,-0.5547748573028366,-0.06692593896232255,1.5177339632169986,0.05632337498441719,0.05877913446055146,0,1,0
0.1402805611222445,-0.33310387598399366,-0.09927194043951319,1.3874589769724786,-0.6652235178908052,-0.03466869760747532,1.612862067742361,0.05632337490488038,0.05791067363045762,0,1,0
0.16032064128256512,-0.33519983613313425,-0.10479800745703105,1.3719408765510106,-0.7759050210733994,-0.0012097053619282859,1.6729496122773513,0.05632339234135148,0.056323375802992896,0,1,0
0.18036072144288576,-0.33735065164326683,-0.10754077550662869,1.3541927487353733,-0.8874063907818689,0.03217772630165637,1.6693715831792326,0.056323374904880784,0.056549729649324226,0,1,0
0.2004008016032064,-0.3395002312736247,-0.10747898151789444,1.3342237043735692,-0.998452218090208,0.06567484155567165,1.6748557627007634,0.05872164582594601,0.05632337570350014,0,1,0
0.22044088176352705,-0.34159153100906636,-0.10456498677208353,1.3120701663111034,-1.1076769031232843,0.09718273704932386,1.57539477468261,0.058663485076194295,0.05632337495094827,0,1,0
0.24048096192384769,-0.3435674989991314,-0.09879839950325213,1.287733906116847,-1.2168130097128227,0.12675455788851095,1.4785910419593535,0.06180758181013047,0.0563233749048823,0,1,0
0.2605210420841683,-0.3453701456018346,-0.0901323301351592,1.261262713451848,-1.3235596332499455,0.15188229478233076,1.2563868446909905,0.0998683140506575,0.09553514354451326,0,1,0
0.280561122244489,-0.3468034812646999,-0.07166678314326569,1.2337924332773855,-1.373514008723117,0.17349923128971803,1.0808468253693642,0.2174338983680229,0.21054032259181915,0,1,0
0.3006012024048096,-0.3472748030405532,-0.023566088792665446,1.2087217239096326,-1.253535468387643,0.1895666104247766,0.8033689567529296,0.273345584169449,0.2684863617462605,0,1,0
0.32064128256513025,-0.3463595490879107,0.0457626976321235,1.1876828434569173,-1.0519440226357646,0.20172393306485972,0.6078661320041552,0.28534395635533516,0.28030208517566224,0,1,0
0.3406813627254509,-0.3438667384102648,0.12464053388229601,1.1709883392559022,-0.8347252100507565,0.2098324189564395,0.40542429457899165,0.2966734869013832,0.29170295526941437,0,1,0
0.3607214428857715,-0.3396311416410836,0.21177983845906206,1.15893839902879,-0.6024970113556026,0.21395549357157828,0.206153730756939,0.2634495733996071,0.25914539679188425,0,1,0
0.3807615230460922,-0.3337884389668213,0.29213513371311584,1.1505565853151054,-0.41909068568423147,0.2146312777190835,0.03378920737525962,0.17613802333145778,0.17156694717397647,0,1,0
0.4008016032064128,-0.32685906345428817,0.34646877562665795,1.1432986336719493,-0.36289758215780554,0.21164964288094495,-0.14908174190692983,0.18535762894898575,0.1814056562724637,0,1,0
0.42084168336673344,-0.31878074052603583,0.40391614641261775,1.1374382593968415,-0.293018713755389,0.20550918486868594,-0.30702290061295057,0.15808398127316348,0.15490687978193202,0,1,0
0.4408817635270541,-0.30973801725006367,0.4521361637986074,1.1321983453459146,-0.2619957025463496,0.1968335141558716,-0.43378353564071537,0.12861108790599668,0.12585867125699607,0,1,0
0.4609218436873747,-0.2999369967631332,0.4900510243465253,1.1267354064132291,-0.273146946634274,0.18596594421692403,-0.5433784969473812,0.1220978652791547,0.11980934675965832,0,1,0
0.48096192384769537,-0.2894473482443235,0.5244824259404836,1.120873899591813,-0.293075341070805,0.1732810857933681,-0.6342429211777956,0.1059625499616062,0.10431033298379574,0,1,0
0.501002004008016,-0.27839515409081605,0.5526097076753719,1.1141613419881538,-0.3356278801829653,0.15929114423824267,-0.6994970777562708,0.11392627771926721,0.11264167026497542,0,1,0
0.5210420841683366,-0.26677879589493775,0.5808179097939152,1.1068439219482902,-0.3658710019931735,0.14429263797801067,-0.7499253130115999,0.12255962030672475,0.12094300596988256,0,1,0
0.5410821643286573,-0.2546059027711737,0.608644656188204,1.0991781502005806,-0.383288587385476,0.1280219827240325,-0.8135327626989091,0.09085894124573855,0.09026155583063379,0,1,0
0.561122244488978,-0.24206391900633792,0.6270991882417878,1.0902583038757552,-0.44599231624127733,0.11129708828849157,-0.8362447217770459,0.18529055438497083,0.18525477605493568,0,1,0
0.5811623246492986,-0.22883882362722918,0.6612547689554368,1.0828757205670976,-0.36912916543287644,0.09456814399077941,-0.8364472148856078,0.056323521284694394,0.057375957487906165,0,1,0
0.6012024048096192,-0.2154452345889203,0.6696794519154448,1.0732575309248045,-0.48090948211465007,0.07870560830346722,-0.793126784365609,0.21507119701089075,0.21367798953162653,0,1,0
0.6212424849699398,-0.20147140769880048,0.6986913445059901,1.0660568380165882,-0.360034645410812,0.06175140168294966,-0.8477103310258789,0.05632341719111231,0.05810344685998875,0,1,0
0.6412825651302605,-0.18738426155386595,0.7043573072467268,1.0566363984038993,-0.4710219806344461,0.046246075307718945,-0.7752663187615365,0.22094320139031276,0.21912349140780624,0,1,0
0.6613226452905812,-0.17291560152346505,0.7234330015200445,1.0498169612784876,-0.34097185627059073,0.029307176803761575,-0.8469449251978678,0.056323385944821835,0.058945575052681054,0,1,0
0.6813627254509018,-0.15838882785769487,0.7263386832885085,1.0407932053570474,-0.45118779607200976,0.014490756812843125,-0.740820999545922,0.2419311364039528,0.23909033116183584,0,1,0
0.7014028056112224,-0.14367479249778428,0.7357017679955291,1.034986024947131,-0.2903590204958192,-0.002577423736159841,-0.8534090274501485,0.0563234288862709,0.058274514929053445,0,1,0
0.721442885771543,-0.12895723776495924,0.7358777366412523,1.0269647337964687,-0.40106455753311415,-0.018059655348383278,-0.7741115806111718,0.24413849180735434,0.24427004039071848,0,1,0
0.7414829659318637,-0.11427997399875883,0.7338631883100203,1.022270895554724,-0.23469191208723675,-0.03341468694188875,-0.7677515796752739,0.056323527059130185,0.058253522362526844,0,1,0
0.7615230460921844,-0.09965415231824565,0.7312910840256595,1.0153608665466625,-0.34550145040307395,-0.04720418920389907,-0.6894751131005159,0.2590806346014403,0.2591207630943039,0,1,0
0.781563126252505,-0.08530597353633927,0.7174089390953186,1.0122136088947074,-0.15736288259775633,-0.06094295410745093,-0.686938245177593,0.056323391523807886,0.05762386448970783,0,1,0
0.8016032064128256,-0.07105736003961786,0.7124306748360706,1.0068369453841446,-0.2688331755281426,-0.07362289766640037,-0.6339971779474728,0.2522217401318727,0.25289413373260516,0,1,0
0.8216432865731462,-0.05728459124366156,0.6886384397978154,1.0050171644860382,-0.09098904490531837,-0.08574839439419918,-0.6062748363899393,0.05632337490821318,0.05765263548643357,0,1,0
0.8416833667334669,-0.043654696628994585,0.6814947307333488,1.0009638100210325,-0.20266772325028126,-0.09679497984553442,-0.5523292725667633,0.24529776461227162,0.2454165265053532,0,1,0
0.8617234468937875,-0.030666072101126166,0.6494312263934209,1.000239134685006,-0.03623376680132909,-0.10773284322915111,-0.5468931691808337,0.056323437015437405,0.05801975531231829,0,1,0
0.8817635270541082,-0.017858309322163632,0.6403881389481266,0.997281459945228,-0.14788373698889762,-0.11730019738670819,-0.47836770787785327,0.23481481049404404,0.23460467431433382,0,1,0
0.9018036072144289,-0.005815291826580023,0.6021508747791804,0.9973217507892305,0.0020145422001212054,-0.12702433754053155,-0.48620700769116837,0.05632337490545808,0.056489345420114745,0,1,0
0.9218436873747494,0.006016695345455831,0.5915993586017927,0.9951018047527374,-0.11099730182465506,-0.13660414641016527,-0.478990443481685,0.2538798544870716,0.25642298723336376,0,1,0
0.9418837675350701,0.016875790419485587,0.5429547537014877,0.9964638363961335,0.06810158216980225,-0.14413820768179184,-0.37670306358132954,0.05632377173781539,0.05771070405555395,0,1,0
0.9619238476953907,0.02749138254608946,0.5307796063301937,0.9955778436156221,-0.04429963902556963,-0.15055445685714194,-0.3208124587675015,0.23576059507948202,0.23615025111279606,0,1,0
0.9819639278557114,0.03708973521806922,0.479917633598988,0.9976917098834023,0.10569331338901256,-0.15665220789307402,-0.30488755179660626,0.05632427662850839,0.057649816191765624,0,1,0
1.002004008016032,0.04642338306524551,0.4666823923588145,0.9975524588498599,-0.006962551677117956,-0.16168318148973074,-0.2515486798328382,0.2047690718319354,0.20474322289457134,0,1,0
1.0220440881763526,0.054799575961659304,0.4188096448206896,0.9994859321524868,0.09667366513134479,-0.16672979676799957,-0.25233076391343934,0.056323375011007065,0.057804820484628955,0,1,0
1.0420841683366733,0.06289400518697513,0.4047214612657916,0.9991659302002064,-0.01600009761402267,-0.17058621516767583,-0.1928209199838155,0.22291813803766095,0.22416003012646643,0,1,0
1.062124248496994,0.06988013052002563,0.34930626665252484,1.0014578201822388,0.11459449910162568,-0.17344544727089542,-0.14296160516097875,0.05632337490499098,0.059282373140954275,0,1,0
1.0821643286573146,0.07656786802261965,0.3343868751297011,1.0015150215715407,0.0028600694650893904,-0.17393487658587475,-0.02447146574896643,0.2355839531604103,0.23780295075641167,0,1,0
1.1022044088176353,0.08203815886157265,0.2735145419476496,1.0045600761368514,0.15225272826553193,-0.1726487069115842,0.06430848371452454,0.10777334721412449,0.10971341844792373,0,1,0
1.122244488977956,0.08694510233580839,0.24534717371178708,1.0068553424718127,0.11476331674806967,-0.16981157663899787,0.1418565136293179,0.1541254064381696,0.1548929294007761,0,1,0
1.1422845691382766,0.0910605834370016,0.20577405505966034,1.0097382636897918,0.14414606089895154,-0.16636302214402368,0.17242772474870977,0.13426968907837045,0.13470692002107307,0,1,0
1.1623246492985972,0.0944985206389793,0.17189686009888508,1.0126258223629103,0.1443779336559225,-0.1625679195194457,0.18975513122889784,0.1444907424870544,0.14517214725521183,0,1,0
1.1823647294589177,0.09722246466868921,0.13619720148549502,1.0158226068820335,0.15983922595616396,-0.1582313092001689,0.2168305159638386,0.1463624684081137,0.14718040494116535,0,1,0
1.2024048096192383,0.09923990917998524,0.10087222556480124,1.0193877411448733,0.17825671314199093,-0.15324457734307229,0.2493365928548314,0.10998372412170482,0.11149888462184315,0,1,0
1.222444889779559,0.10073838062996529,0.0749235724990028,1.0222696723580453,0.14409656065860665,-0.1470507162422909,0.30969305503907085,0.10503242778531507,0.10637046105562048,0,1,0
1.2424849699398797,0.10175738903196187,0.050950420099828614,1.0243241155897822,0.10272216158684548,-0.13979293870342646,0.36288887694322075,0.0956711615210836,0.09673084279605614,0,1,0
1.2625250501002003,0.10235784437181548,0.030022766992680985,1.0252763639675266,0.04761241888721957,-0.13169535170735877,0.40487934980338813,0.11925514127878802,0.11981655890625231,0,1,0
1.282565130260521,0.10246428429710791,0.005321996264621369,1.0258150598803317,0.026934795640254684,-0.12315774624030584,0.4268802733526458,0.09547944182086097,0.09574409030819846,0,1,0
1.3026052104208417,0.10219862905197635,-0.01328276225657813,1.0252417229143407,-0.028666848299554574,-0.11441817541194246,0.43697854141816755,0.13041307484606893,0.13037592728441166,0,1,0
1.3226452905811623,0.10145857003180304,-0.03700295100866567,1.0245831361330369,-0.03292933906519621,-0.10571836835834708,0.4349903526797703,0.11339801814129963,0.11333561513184748,0,1,0
1.342685370741483,0.10033563784686188,-0.05614660924705855,1.0233421557690057,-0.06204901820155962,-0.09707846913422606,0.4319949612060512,0.1274782785791649,0.12723882774925166,0,1,0
1.3627254509018036,0.09881548444415066,-0.07600767013556102,1.0219347701523975,-0.07036928083040826,-0.0886400212577857,0.42192239382201907,0.12305849944214241,0.12297758915478782,0,1,0
1.3827655310621243,0.09694337967158748,-0.09360523862815921,1.0202364440826859,-0.08491630348557784,-0.08027589836086717,0.4182061448459252,0.12552539671498367,0.12545874907070415,0,1,0
1.4028056112224447,0.09474380455377412,-0.10997875589066762,1.0183233342122402,-0.09565549352228175,-0.07197458135453293,0.41506585031671156,0.1342115129000321,0.1339857531537828,0,1,0
1.4228456913827654,0.09222762839255194,-0.12580880806110922,1.0164524752277981,-0.09354294922209877,-0.06386326345018051,0.4055658952176212,0.14071367512012506,0.14053522154964807,0,1,0
1.442885771543086,0.08941414669433972,-0.14067408491061087,1.014819210218204,-0.08166325047970378,-0.0559038244990484,0.39797194755660575,0.13506053971836887,0.1347448264709751,0,1,0
1.4629258517034067,0.08634818647082028,-0.15329801117597194,1.0132564325067623,-0.0781388855720902,-0.0482058498030615,0.3848987347993448,0.140727490994387,0.14053181970679443,0,1,0
1.4829659318637274,0.08305228204823034,-0.1647952211294967,1.01193541530683,-0.06605085999661481,-0.04067293623121514,0.3766456785923188,0.13387773817128865,0.1337632202934006,0,1,0
1.503006012024048,0.07956841782615774,-0.17419321110363029,1.0106560876742585,-0.06396638162857884,-0.033239930484521736,0.37165028733466915,0.13149120818256108,0.13122243836204778,0,1,0
1.5230460921843687,0.07592960026381546,-0.18194087811711465,1.009346808602207,-0.06546395360257118,-0.026030091041891305,0.3604919721315213,0.12819382012791816,0.12807661092516653,0,1,0
1.5430861723446894,0.07216808118820645,-0.18807595378045028,1.0079132812368359,-0.07167636826856241,-0.01892186366714562,0.3554113687372847,0.1311997495291315,0.1309419917386583,0,1,0
1.56312625250501,0.06830909843521912,-0.19294913764936605,1.0064433972512208,-0.07349419928075163,-0.012027544972903922,0.3447159347120847,0.13956954796970128,0.13911410208411795,0,1,0
1.5831663326653307,0.06437572325874712,-0.19666875882360013,1.005182839550438,-0.06302788503913007,-0.005504991047928932,0.32612769624874954,0.14214440731967967,0.14158996994313428,0,1,0
1.6032064128256511,0.06039558841079907,-0.19900674239740232,1.0042066667799654,-0.04880863852363686,0.000567102619531897,0.3036046833730415,0.13875679117182324,0.13822722788477354,0,1,0
1.6232464929859718,0.05639670067482717,-0.19994438679859516,1.003414839737169,-0.039591352139822227,0.006209220979743691,0.28210591801058965,0.1357768543275817,0.1351286798769573,0,1,0
1.6432865731462925,0.05240394013053936,-0.19963802721439028,1.002717189948424,-0.03488248943724405,0.011327020998356111,0.2558900009306211,0.14164221148742984,0.14103852859393484,0,1,0
1.6633266533066131,0.04844102433975889,-0.19814578953902368,1.0022879934754696,-0.02145982364771413,0.01595673911181283,0.2314859056728361,0.1322212761582123,0.13168218349504648,0,1,0
1.6833667334669338,0.0445261948335414,-0.19574147531087427,1.0018486388699692,-0.021967730275021684,0.020150626570774807,0.20969437294809812,0.1387304223229439,0.13811694719727632,0,1,0
1.7034068136272544,0.04068055694592045,-0.19228189438104748,1.0015906253529199,-0.012900675852462911,0.02384967958772914,0.18495265084771684,0.13500552832241772,0.1344409520242923,0,1,0
1.723446893787575,0.03691902027750954,-0.18807683342054562,1.0014038473305842,-0.009338901116789871,0.027093568094153014,0.16219442532119396,0.1351662112315254,0.1345905941192321,0,1,0
1.7434869739478958,0.03325636325718783,-0.18313285101608562,1.001292507448603,-0.00556699409905668,0.029873949310341166,0.13901906080940743,0.14072237021762748,0.1401685938365229,0,1,0
1.7635270541082164,0.02970990517431199,-0.17732290414379207,1.001421093324702,0.006429293804956826,0.032208777608331574,0.11674141489952086,0.13127028331463425,0.1310065875102282,0,1,0
1.783567134268537,0.026282848135818496,-0.1713528519246747,1.001513407629637,0.004615715246745138,0.03433056391828478,0.10608931549766042,0.13646018197137802,0.13609797038337096,0,1,0
1.8036072144288577,0.022989035993007643,-0.16469060714054273,1.0017214396895582,0.010401602996055628,0.036160704102007606,0.09150700918614091,0.14525681626449008,0.14489323725537653,0,1,0
1.8236472945891782,0.0198458353386686,-0.1571600327169522,1.0023052643298471,0.029191232014449633,0.037698383476915065,0.0768839687453728,0.12406909755211815,0.12386589644025131,0,1,0
1.8436873747494988,0.016838344528793417,-0.1503745404937591,1.0026392570620253,0.016699636608904007,0.039072177432728485,0.06868969779067155,0.14639554391298382,0.14602187576916126,0,1,0
1.8637274549098195,0.01399689859688588,-0.14207229659537685,1.0033819741313366,0.037135853465568955,0.040145862628043136,0.05368425976573221,0.1160269080971489,0.11579850406531057,0,1,0
1.8837675350701402,0.01129221694490463,-0.13523408259906256,1.0036358390830247,0.012693247584402042,0.041035919643076804,0.044502850751682616,0.1461010966796075,0.1457124043369747,0,1,0
1.9038076152304608,0.00876350342716589,-0.12643567588693694,1.0042891530030946,0.032665696003498806,0.04161427917351825,0.028917976522073615,0.11716369995775468,0.1170001014858357,0,1,0
1.9238476953907815,0.006379394540149939,-0.11920544435079758,1.0044880489008976,0.009944794890146071,0.042061283880710364,0.022350235359605182,0.14449040734137175,0.1441809040755022,0,1,0
1.9438877755511021,0.004175337854030702,-0.11020283430596181,1.0050396761962141,0.02758136476583238,0.04226032040365806,0.009951826147385,0.1247962896295279,0.12461042067232904,0,1,0
1.9639278557114228,0.002128611736720545,-0.10233630586550786,1.0053624583337866,0.01613910687862121,0.042310500949955775,0.002509027314885173,0.14090049874320612,0.14071326624134983,0,1,0
1.9839679358717435,0.00025995257292230176,-0.09343295818991217,1.0059332863156092,0.02854139909112963,0.04221085524979738,-0.0049822850079183295,0.12765534051979227,0.12761851452323605,0,1,0
2.004008016032064,-0.001447102025046853,-0.08535272989845774,1.0063620633361385,0.021438851026468586,0.042081828866269336,-0.006451319176403309,0.12605902046771017,0.12597275488140064,0,1,0
2.024048096192385,-0.0029951105324030154,-0.0774004253678081,1.0066009453564104,0.011944101013589932,0.04188389390128495,-0.009896748249218643,0.12659650839621453,0.1267220961111905,0,1,0
2.0440881763527052,-0.0043839026948875905,-0.06943960812422877,1.0066691670693704,0.0034110856480019484,0.041786589021411746,-0.00486524399366074,0.12821274471830446,0.12821816681497675,0,1,0
2.064128256513026,-0.00561243717132907,-0.061426723822074016,1.006612975167512,-0.0028095950929234934,0.04169370004148758,-0.0046444489962083274,0.13003693835952973,0.1299241003311189,0,1,0
2.0841683366733466,-0.006679043584530964,-0.05333032066009468,1.0064847437279498,-0.006411571978107591,0.041510615295540954,-0.009154237297331811,0.13110281843687072,0.13090948204819988,0,1,0
2.1042084168336674,-0.007582956842223059,-0.04519566288460469,1.006314910710008,-0.008491650897086766,0.04117300924984434,-0.016880302284830388,0.1313103307921301,0.1310767763249188,0,1,0
2.124248496993988,-0.00832479930743662,-0.03709212326067809,1.0061090875972152,-0.010291155639644967,0.040648834284970826,-0.02620874824367611,0.13160991498221475,0.13135363506890868,0,1,0
