time,x,x_dot,z,z_dot,theta,theta_dot,u1,u2,x_ref,z_ref,theta_ref
0.0,-0.638733817551661,-0.02035264785286632,1.393832403569878,-0.01932279849706664,0.07320184921118865,0.002216183042718936,0.06900656670428011,0.05632337492101431,0,1,0
0.02004008016032064,-0.6390047402870992,-0.013546136771905394,1.3913780328671799,-0.12271853513490616,0.0630995844134217,-0.5051132398883473,0.056323374904880236,0.05941605455238227,0,1,0
0.04008016032064128,-0.6391500154388433,-0.007263757587207259,1.386715934349546,-0.2331049258816857,0.05548350060777333,-0.38080419028241963,0.05632337490488037,0.07943502635683969,0,1,0
0.06012024048096192,-0.6391683233349116,-0.0009153948034123722,1.380145668326167,-0.3285133011689574,0.06636461426998307,0.5440556831104878,0.05632337490488051,0.06738868552721972,0,1,0
0.08016032064128256,-0.6390849753722729,0.0041673981319301605,1.371492336238044,-0.4326666044061544,0.08608401103377782,0.985969838189737,0.056323374904881006,0.06058584802482335,0,1,0
0.1002004008016032,-0.6388868645447103,0.009905541378128439,1.3606570979920554,-0.5417619122994336,0.10918139310271484,1.15486910344685,0.056323374904880916,0.06150343824141314,0,1,0
0.12024048096192384,-0.6385389168685164,0.017397383809699463,1.347654343454751,-0.6501377268652176,0.13638190250180143,1.3600254699543308,0.05632337490488128,0.057888748092572884,0,1,0
0.1402805611222445,-0.6380070570468144,0.026592991085101568,1.3324307128869919,-0.7611815283879566,0.16478289157892093,1.4200494538559738,0.058403487189865155,0.05632337490488079,0,1,0
0.16032064128256512,-0.6372448622186009,0.03810974141067521,1.3149924121153131,-0.8719150385839393,0.1914654770047773,1.3341292712928219,0.05632337490488409,0.057527053763995785,0,1,0
0.18036072144288576,-0.6362071305568043,0.0518865830898258,1.2953240627120133,-0.9834174701649963,0.2190608377495547,1.3797680372388677,0.1421401699015821,0.14018144750773487,0,1,0
0.2004008016032064,-0.6343751180177805,0.09160062695119232,1.275873055692615,-0.9725503509699184,0.2450372807265109,1.2988221488478078,0.2266238314947842,0.2265763680781972,0,1,0
0.22044088176352705,-0.6310869465485757,0.1644085734602383,1.2590864339517367,-0.8393310870439115,0.27092799360343583,1.2945356438462488,0.20850117548876473,0.2027739671644249,0,1,0
0.24048096192384769,-0.6263255478850375,0.23806993317691175,1.2443156850800179,-0.7385374435859439,0.2921909496509002,1.0631478023732157,0.20412378316500693,0.19984363363802155,0,1,0
0.2605210420841683,-0.6199692539086478,0.317814698819487,1.2314123202400935,-0.6451682419962244,0.30999546519657567,0.890225777283777,0.25343126174075087,0.24441912093873172,0,1,0
0.280561122244489,-0.6114971643279974,0.4236044790325203,1.2216696507413756,-0.4871334749359013,0.32056448716990454,0.5284510986664415,0.22239952555260395,0.2133435114376623,0,1,0
0.3006012024048096,-0.6010669641429246,0.5215100092536374,1.2141675598717048,-0.3751045434835384,0.32387617909922173,0.16558459646586215,0.13779391390558388,0.12687636087900517,0,1,0
0.32064128256513025,-0.589414939160498,0.5826012491213304,1.2064766203892514,-0.3845469741226658,0.31845078845606734,-0.2712695321577251,0.20249028001685682,0.1958979111547764,0,1,0
0.3406813627254509,-0.5759004541917061,0.6757242484395942,1.200471322486464,-0.3002648951393694,0.3077570980481859,-0.5346845203940729,0.17883784592332372,0.1723109228990971,0,1,0
0.3607214428857715,-0.5607759879965152,0.7562233097595475,1.1954950267740296,-0.24881478562172404,0.29185529692524337,-0.795090056147126,0.17332424797019852,0.1679427298474534,0,1,0
0.3807615230460922,-0.5441417393134513,0.8317124341531917,1.1914241433769783,-0.2035441698525694,0.2716716617481185,-1.0091817588562413,0.15855319849896102,0.15571626092371,0,1,0
0.4008016032064128,-0.5261925686852067,0.897458531412234,1.1878982613876226,-0.1762940994677879,0.24925138085133774,-1.121014044839038,0.11104482014737899,0.10960447333140368,0,1,0
0.42084168336673344,-0.5073937126817072,0.9399428001749776,1.1836067678918136,-0.2145746747904433,0.22571715508040713,-1.176711288546531,0.07531095422485973,0.07491315895134709,0,1,0
0.4408817635270541,-0.48807540174012426,0.9659155470791452,1.1775587849002669,-0.30239914957733904,0.2019057629867266,-1.190569604684027,0.08416084853971287,0.08401763154563527,0,1,0
0.4609218436873747,-0.468230569290052,0.992241622503611,1.1700288698937515,-0.3764957503257622,0.1780215581853348,-1.1942102400695906,0.07141973694798652,0.0723914863144017,0,1,0
0.48096192384769537,-0.44799121039419537,1.0119679447928331,1.1606786291395574,-0.4675120377097016,0.15495645672427286,-1.1532550730531008,0.10101319883755056,0.10178591055644738,0,1,0
0.501002004008016,-0.42725405935449756,1.0368575519848917,1.1503811561706967,-0.5148736484430357,0.13254909224939962,-1.1203682237436587,0.056323374904903564,0.057023588653865455,0,1,0
0.5210420841683366,-0.4062935382063398,1.0480260574078895,1.1378405522908552,-0.6270301939920772,0.11073976712323376,-1.090466256308293,0.1293818810929504,0.12928585318394184,0,1,0
0.5410821643286573,-0.3848638071604571,1.071486552294134,1.1252007334951877,-0.6319909397833741,0.08889011126506272,-1.092482792908551,0.05993265941373334,0.06069635819704665,0,1,0
0.561122244488978,-0.363275048076416,1.0794379542020556,1.1104397554429077,-0.7380489026140024,0.06768784462345923,-1.060113332080176,0.06670264381396207,0.06674395918345573,0,1,0
0.5811623246492986,-0.34155064089358594,1.086220359141502,1.0937552090388374,-0.8342273202035146,0.04655356610559064,-1.056713925893429,0.11463134283047666,0.11465609806289126,0,1,0
0.6012024048096192,-0.3196376662819253,1.0956487305830325,1.0765713635882184,-0.8591922725309538,0.025473861082147876,-1.053985251172138,0.13113494944487752,0.13015193471995393,0,1,0
0.6212424849699398,-0.29758649069542864,1.1025587793248346,1.059367129016379,-0.8602117285919635,0.003642556916691756,-1.0915652082728062,0.10620641782323537,0.1053256198380424,0,1,0
0.6412825651302605,-0.2754978040733842,1.1044343311022227,1.0414086961630067,-0.897921642668624,-0.018856688450023383,-1.124962268335757,0.10985308249262135,0.11102228905074024,0,1,0
0.6613226452905812,-0.25344002179894703,1.1028891137218586,1.022837285553253,-0.9285705304876822,-0.04038255727158158,-1.0762934410779095,0.20816817328552378,0.20635629715137585,0,1,0
0.6813627254509018,-0.23154112098708685,1.0949450405930101,1.0065221636412036,-0.8157560956024692,-0.06332183597546104,-1.1469639351939738,0.24223988050675377,0.2407049663418692,0,1,0
0.7014028056112224,-0.20997250830872272,1.0784306339182064,0.993466820843743,-0.6527671398730308,-0.0874493231078499,-1.2063743566194423,0.29563805669197457,0.2966828793831106,0,1,0
0.721442885771543,-0.18899818783667052,1.0487160236026096,0.9852726266386628,-0.40970971025401154,-0.11069860795276919,-1.1624642422459646,0.23381077551083448,0.23524905152076944,0,1,0
0.7414829659318637,-0.16866645305278213,1.016586739194419,0.9800948489468839,-0.2588888845889435,-0.13275736235102314,-1.1029377199126986,0.22024756830204065,0.22249045781066254,0,1,0
0.7615230460921844,-0.1490926458173606,0.9786903617710766,0.9775244936084775,-0.12851776692032446,-0.15298513112199255,-1.0113884385484686,0.1566805973496431,0.15948226772577073,0,1,0
0.781563126252505,-0.130169951064878,0.9461347376241304,0.9756809034929463,-0.0921795057765559,-0.1709394733924852,-0.8977171135246338,0.1784482860936319,0.1819868449608929,0,1,0
0.8016032064128256,-0.11209050910312549,0.9039720980876259,0.9751976044773579,-0.024164950779421338,-0.18603616702112938,-0.7548346814322107,0.14534350900691667,0.14771410207282587,0,1,0
0.8216432865731462,-0.09477715081633363,0.8656679143395926,0.9750733589308858,-0.006212277323609034,-0.19921540854506847,-0.6589620761969531,0.16120671672358036,0.16413019239812365,0,1,0
0.8416833667334669,-0.0783811286653355,0.8198011075499061,0.9757659397309215,0.03462904000178724,-0.21003858155152982,-0.5411586503230656,0.15622238020340024,0.15921514696194372,0,1,0
0.8617234468937875,-0.06293380368589115,0.7723662489722178,0.9771182355600202,0.06761479145493283,-0.21845433719908822,-0.4207877823779238,0.14683323483401647,0.149621356005847,0,1,0
0.8817635270541082,-0.04842412276302186,0.7254840461434643,0.9788440088588534,0.08628866494165723,-0.22463010929409644,-0.30878860475041053,0.2144524223083138,0.21696664921256803,0,1,0
0.9018036072144289,-0.035319679108350086,0.6552221827335886,0.9828868860508961,0.20214385960213743,-0.2287880719988167,-0.20789813523601214,0.09721054631148963,0.10089463915538387,0,1,0
0.9218436873747494,-0.02288664225972232,0.6216518424313884,0.9858654682736294,0.14892911113666604,-0.22999476798935914,-0.060334799527121674,0.0706060574611444,0.0731026740726895,0,1,0
0.9418837675350701,-0.010952765700825713,0.5966938279448303,0.9869936846301545,0.05641081782625454,-0.22920314854343182,0.039580972296368006,0.1627914834551739,0.1637232190222394,0,1,0
0.9619238476953907,-0.00013691907967674534,0.5407923310574484,0.9889103357151902,0.09583255425178458,-0.227666799239401,0.07681746520154167,0.10910257564763673,0.11199653834267505,0,1,0
0.9819639278557114,0.009921314232206286,0.5029116655941516,0.9900944909775066,0.05920776311582255,-0.22381660600584818,0.19250966167764189,0.21270193108142038,0.21298348825891394,0,1,0
1.002004008016032,0.01854402792190008,0.4311356844846897,0.993500936075104,0.17032225487987362,-0.21974484181384063,0.20358820960037555,0.11516922686519863,0.11717250843647717,0,1,0
1.0220440881763526,0.02639266259023259,0.3924317334166254,0.9963396377706214,0.14193508477586694,-0.21407438623177666,0.28352277910320045,0.1776350782024408,0.17795324659652245,0,1,0
1.0420841683366733,0.033084081663683186,0.33457095367252976,1.0003964175214959,0.2028389875437205,-0.2081552225535954,0.29595818390906403,0.08630268348904946,0.08739718314425367,0,1,0
1.062124248496994,0.039221366833245064,0.30686425847809373,1.0030432731449317,0.13234278117179288,-0.20136661128093158,0.33943056363319074,0.1610831251406694,0.16111967248973902,0,1,0
1.0821643286573146,0.04436565819723057,0.257214568199275,1.0064376394665226,0.16971831607954357,-0.19455603710130293,0.34052870898143645,0.08445537191919031,0.0852159806803667,0,1,0
1.1022044088176353,0.04900181457223454,0.2318078187501987,1.008371312746708,0.09668366400926585,-0.18714429384069176,0.370587163030557,0.14673651145334532,0.14686657780442375,0,1,0
1.122244488977956,0.052792403528365305,0.1895294478065382,1.0106506632272385,0.11396752402652642,-0.17963662710918085,0.3753833365755466,0.09620726000746378,0.09679056714120457,0,1,0
1.1422845691382766,0.05604731926512596,0.16274578683803273,1.011817090647699,0.05832137102302881,-0.17167058855746273,0.39830192758590693,0.13699642287220032,0.1371880565187732,0,1,0
1.1623246492985972,0.05857341637331491,0.1263048554094476,1.0130590530834505,0.06209812178757022,-0.16356015909416863,0.4055214731647042,0.10159227319545606,0.10222161105225544,0,1,0
1.1823647294589177,0.060581397148489737,0.10039903875874143,1.0133549632141496,0.01479550653495696,-0.15495539541025674,0.4302381841955915,0.13083193390532097,0.1311580718243556,0,1,0
1.2024048096192383,0.06195560371696458,0.06871032842374222,1.0135601450753653,0.010259093060782641,-0.146099576539263,0.4427909435496876,0.11263717249439198,0.11292258769455987,0,1,0
1.222444889779559,0.06281290124504055,0.042864876403797984,1.0131467394904246,-0.020670279247037404,-0.13702565613759488,0.4536960200834067,0.12411134512988653,0.12418225265252752,0,1,0
1.2424849699398797,0.06313397398275326,0.01605363688563604,1.0124529156851887,-0.034691190261798024,-0.12790556463043914,0.45600457535778344,0.12309734407158707,0.12311349407441527,0,1,0
1.2625250501002003,0.0629565322571394,-0.008872086280693307,1.0114530462514588,-0.04999347168649746,-0.11878317677406691,0.4561193928186123,0.12294816097738649,0.12294533086627592,0,1,0
1.282565130260521,0.06231456620934083,-0.03209830238992867,1.010147126130981,-0.06529600602389522,-0.10967367954083299,0.455474861661697,0.12133422185083072,0.12148795326272753,0,1,0
1.3026052104208417,0.061246848726659246,-0.05338587413407919,1.0084943437310296,-0.08263911999756834,-0.10045180919602328,0.4610935172404859,0.12186739283545109,0.12182969197982059,0,1,0
1.3226452905811623,0.059784904895092826,-0.07309719157832115,1.0065116495018882,-0.09913471145707407,-0.09127087746499232,0.4590465865515488,0.11721303519441496,0.11687516267780806,0,1,0
1.342685370741483,0.05797649605024274,-0.09042044224250409,1.0040612278980934,-0.12252108018974237,-0.08237094868112695,0.4449964391932669,0.15185146442737904,0.15156184911315962,0,1,0
1.3627254509018036,0.055760059907700284,-0.11082180712712289,1.0021693676216121,-0.09459301382406092,-0.07371299126476445,0.43289787081812586,0.16340210680070683,0.16235801104765293,0,1,0
1.3827655310621243,0.053148576207280175,-0.13057418502100543,1.0011689540303668,-0.050020679562263304,-0.0659002039195551,0.3906393672604669,0.13005905274236856,0.13009830324903604,0,1,0
1.4028056112224447,0.05025562767196162,-0.14464742676592768,1.0000931694159714,-0.05378923071977086,-0.05806470894286765,0.39177474883437174,0.13627796700701172,0.13597818672369885,0,1,0
1.4228456913827654,0.04709973950989912,-0.1577944081031252,0.9991230476620505,-0.04850608769604327,-0.05047775502591372,0.379347695847697,0.16862813623918782,0.16809960573032595,0,1,0
1.442885771543086,0.04365729634430353,-0.17212215827977947,0.9992139821380437,0.00454672379965642,-0.04332198538456187,0.3577884820675933,0.11721742589575412,0.11758528335710183,0,1,0
1.4629258517034067,0.04004256604121741,-0.18073651515430575,0.9988589592468805,-0.01775114455815929,-0.035879710125667715,0.3721137629447069,0.16002229166343568,0.15964345119971235,0,1,0
1.4829659318637274,0.03622615308464591,-0.19082064782857502,0.9993156173806791,0.02283290668992705,-0.028748668163052202,0.35655209813077565,0.10240666230167592,0.10219926765114529,0,1,0
1.503006012024048,0.032304644808097784,-0.19607541382740643,0.9988810880379816,-0.02172646713487664,-0.021791276606101934,0.3478695778475137,0.15857097553069865,0.15831632354353184,0,1,0
1.5230460921843687,0.028251946958414834,-0.2026348924841474,0.9992196616614776,0.016928681174797993,-0.015045103833271883,0.3373086386415026,0.12043542773302471,0.12147500713362314,0,1,0
1.5430861723446894,0.024125059863260447,-0.20634435475771945,0.9992209167624079,6.275504651424846e-05,-0.007474503836687145,0.3785299998292367,0.15730492372154817,0.15866178678577014,0,1,0
1.56312625250501,0.019931732227384855,-0.20966638179377967,0.999982629182973,0.038085621028257646,0.001173206465349424,0.4323855151018285,0.116157399792714,0.11563013963651902,0,1,0
1.5831663326653307,0.015716807742283852,-0.21074622425505024,1.0002573959293102,0.013738337316862862,0.009389214930588896,0.4108004232619736,0.12049591403047036,0.12005641578294471,0,1,0
1.6032064128256511,0.011510148328311536,-0.2103329706986158,1.0001756322059558,-0.004088186167721164,0.017244363746316268,0.39275744078636843,0.1611262988665402,0.16074433145146816,0,1,0
1.6232464929859718,0.007352333594432382,-0.2078907366939577,1.0009421912511542,0.03832795225992019,0.02478519580403353,0.37704160288586314,0.11033124596633533,0.10920474920032477,0,1,0
1.6432865731462925,0.0032546307955545403,-0.20488513994389207,1.001039908959908,0.004885885437684194,0.03141654884034715,0.3315676518156807,0.15530227888509288,0.15474061097639413,0,1,0
1.6633266533066131,-0.0007252896036821829,-0.19899601996183616,1.0018093497197869,0.03847203799394064,0.03759151335337402,0.3087482256513432,0.10186698103064418,0.10098971314317813,0,1,0
1.6833667334669338,-0.004606980611656436,-0.19408455039871267,1.0016618515393398,-0.007374909022352126,0.04305821175760547,0.2733349202115729,0.1590066507005822,0.15811185139643996,0,1,0
1.7034068136272544,-0.00830839784242386,-0.18507086153837124,1.002289227089511,0.0313687775085609,0.04780351266459616,0.23726504534953502,0.08926544953107643,0.08856667144103585,0,1,0
1.723446893787575,-0.011892894144013125,-0.1792248150794633,1.0016281146044754,-0.03305562425177751,0.05198510043769478,0.20907938865493,0.16033587275569763,0.15964319711429692,0,1,0
1.7434869739478958,-0.015247477295607069,-0.16772915757969722,1.0017826427357086,0.00772640656166388,0.05560850784524633,0.18117037037757833,0.10491967747360084,0.10390510087239163,0,1,0
1.7635270541082164,-0.018438172274992923,-0.15953474896929276,1.0011065475622452,-0.033804758673175964,0.05841683541090897,0.14041637828313197,0.17395403352121275,0.17255704802879968,0,1,0
1.783567134268537,-0.02134057940115416,-0.1451203563080619,1.0016366438459903,0.02650481418725742,0.060105016859538646,0.08440907243148338,0.10242687490301113,0.10171408287517494,0,1,0
1.8036072144288577,-0.024063751886252885,-0.13615862425493627,1.0012654051753043,-0.01856193353429702,0.061221500955079396,0.05582420477703804,0.17478154957391873,0.1736949091872021,0,1,0
1.8236472945891782,-0.026474334247213217,-0.1205291180480167,1.0021277960546426,0.04311954396691532,0.061467730234336916,0.01231146396287603,0.10423340127345068,0.10396348090487782,0,1,0
1.8436873747494988,-0.028694027725612515,-0.11098467391996494,1.0021480284915925,0.0010116218474876537,0.0614978238167089,0.0015046791185986171,0.16419879099734658,0.16333692491579038,0,1,0
1.8637274549098195,-0.030613671300626852,-0.09598217875071687,1.003091459976982,0.04717157426947405,0.06083840042305781,-0.032971169682555077,0.10333379246387212,0.10324246127710585,0,1,0
1.8837675350701402,-0.032343526270398104,-0.08649274848856256,1.0031686595987361,0.00385998108770208,0.06010645702815066,-0.03659716974535721,0.15818819519111185,0.15761908574016995,0,1,0
1.9038076152304608,-0.03378741295356137,-0.07219433415816352,1.0039957626426363,0.04135515219500756,0.0589198331787958,-0.059331192467743016,0.10562201253029926,0.10558143078803456,0,1,0
1.9238476953907815,-0.03504209215241523,-0.06273395994269305,1.0040254384590652,0.0014837908214465415,0.05770174958058944,-0.060904179910317865,0.1501562149885875,0.1499217551070532,0,1,0
1.9438877755511021,-0.03603392216362535,-0.04959150056050601,1.0045729742808298,0.0273767910882349,0.056297132032267,-0.07023087741612108,0.10935770194142863,0.1095199779336357,0,1,0
1.9639278557114228,-0.03683791201784877,-0.04019949271117081,1.0044372828942885,-0.006784569327069594,0.055023537761675304,-0.06367971352958482,0.1463514465647341,0.14589961556084455,0,1,0
1.9839679358717435,-0.037397614575150964,-0.0279851278651097,1.0047044905453624,0.013360382553693408,0.05338956273821443,-0.08169875117304454,0.1163656065712306,0.11635190743417188,0,1,0
2.004008016032064,-0.03776724836576909,-0.018481689530906224,1.0044939269316842,-0.010528180683910596,0.05174604239469879,-0.08217601717578182,0.13290218123938138,0.132664128319404,0,1,0
2.024048096192385,-0.03792662854069372,-0.00796900874623164,1.0042922451047713,-0.010084091345640046,0.04991350283501647,-0.0916269779841151,0.1345883783557479,0.1350525077430023,0,1,0
2.0440881763527052,-0.03787926293947319,0.0023682800610267778,1.0041600595014104,-0.006609280168049065,0.048453866521343356,-0.07298181568365558,0.1346541733689597,0.13483437004903231,0,1,0
2.064128256513026,-0.03763274242100361,0.012326025923479034,1.004095431009996,-0.003231424570717152,0.04713964032871167,-0.06571130963158497,0.13401786141227282,0.13397037273908377,0,1,0
2.0841683366733466,-0.03719412554730199,0.021930843685080942,1.0040763912856032,-0.0009519862196493167,0.045788543698886,-0.06755483149128293,0.13228567063632213,0.13210375402320618,0,1,0
2.1042084168336674,-0.03657129531345195,0.031141511692502004,1.0040498963590918,-0.0013247463255760357,0.04429306780716244,-0.07477379458617842,0.13192665877585844,0.13168515496550234,0,1,0
2.124248496993988,-0.035770220597276255,0.04005373580878457,1.0040046902369912,-0.0022603061050323436,0.042605674921808626,-0.08436964426769016,0.13145533778144672,0.131192784099638,0,1,0
2.1442885771543083,-0.03479752078335343,0.04863499069614124,1.0039267887305663,-0.0038950753212473235,0.04070970319610044,-0.0947985862854094,0.13072801013806892,0.13046374897621793,0,1,0
