time,x,x_dot,z,z_dot,theta,theta_dot,u1,u2,x_ref,z_ref,theta_ref
0.0,0.48360398928512116,0.05073376342392158,0.9651805382294835,-0.07925499407042161,0.1867407399302935,-0.035849935824143794,0.14734028459428464,0.09993167450435286,0,1,0
0.02004008016032064,0.4852978926030508,0.08469516589647982,0.9632764261560948,-0.0952056036694348,0.14809744730431146,-1.932164631299102,0.08296363883165571,0.07361364930982149,0,1,0
0.04008016032064128,0.4874209305656746,0.10615189813119108,0.9597333666324036,-0.177152976184556,0.10207039411151211,-2.301352659639969,0.06369680146394585,0.05632337490488788,0,1,0
0.06012024048096192,0.4898042864180456,0.11916779261854978,0.9540323400941273,-0.28505132691381374,0.05027240852226476,-2.589899279462368,0.0591010977232831,0.05632337490488177,0,1,0
0.08016032064128256,0.4923593831655254,0.12775483737399246,0.9461183757463293,-0.3956982173898992,-0.003596014745951117,-2.6934211634107936,0.06565097780724444,0.06939003969279456,0,1,0
0.1002004008016032,0.49501211889380453,0.13263678641395624,0.9362914552535511,-0.4913460246389112,-0.054318360454684154,-2.5361172854366516,0.278818757600651,0.27789406150248475,0,1,0
0.12024048096192384,0.4976319939627867,0.13099375344910638,0.9308039412910399,-0.2743756981255545,-0.10563602351132126,-2.565883152831856,0.2650810646674127,0.27395953141108614,0,1,0
0.1402805611222445,0.4998155743313039,0.10917901842586196,0.9293761606222397,-0.07138903344001335,-0.14971386947775187,-2.203892298321528,0.2910381839006495,0.2966828840987698,0,1,0
0.16032064128256512,0.5010791190076709,0.0631772338183506,0.932688114666688,0.16559770222241585,-0.18916736477804888,-1.9726747650148528,0.11146997074320963,0.11961551953091126,0,1,0
0.18036072144288576,0.501830842509485,0.037586175090705776,0.9354621424420366,0.13870138876743235,-0.22201566613831358,-1.642415068013241,0.2930658331252477,0.2966828724927858,0,1,0
0.2004008016032064,0.500938959078736,-0.04459417153744824,0.9428947915530133,0.37163245554883106,-0.2519024579185183,-1.4943395890102322,0.28459729986410676,0.2966828803444556,0,1,0
0.22044088176352705,0.498151823289095,-0.13935678948204677,0.9547994615232422,0.5952334985114508,-0.27206546478247257,-1.00815034319771,0.25235226081843865,0.2624111730917247,0,1,0
0.24048096192384769,0.49346749285961033,-0.2342165214742334,0.9701542300109758,0.7677384243866751,-0.28415058526140446,-0.6042560239465908,0.20821359104035725,0.21572773708552734,0,1,0
0.2605210420841683,0.4871021823157695,-0.3182655271920396,0.9876164530947965,0.8731111541910377,-0.29020931777416514,-0.3029366256380344,0.06473055584561346,0.0691940777315162,0,1,0
0.280561122244489,0.48019047812718674,-0.3455852094291396,1.0030362318960815,0.7709889400642459,-0.29269098300176005,-0.12408326137974743,0.0914387534747215,0.09770082906915609,0,1,0
0.3006012024048096,0.47248715548918946,-0.38516613189986265,1.0171981489769713,0.7080958540444898,-0.2901607715015786,0.1265105750090688,0.10392145667899663,0.10843755501152255,0,1,0
0.32064128256513025,0.4638872311441725,-0.4299962172508483,1.030431864501861,0.661685776244489,-0.2840199731480998,0.30703991767394295,0.09236277901720491,0.0972017237756493,0,1,0
0.3406813627254509,0.4544961256078768,-0.46955527681478804,1.0424176060717825,0.5992870784960667,-0.27401451299184193,0.5002730078128915,0.11617676426189606,0.1193590463462679,0,1,0
0.3607214428857715,0.4441404587383992,-0.5177833434738803,1.053816080818038,0.569923737312773,-0.26147536333452503,0.6269574828658431,0.08322988295691011,0.08579689257193265,0,1,0
0.3807615230460922,0.4331218501361033,-0.5509304301147928,1.063689093492684,0.49365063373229645,-0.2468990879580512,0.7288137688236915,0.060481122442576835,0.06246359367696597,0,1,0
0.4008016032064128,0.4216477334015213,-0.5737058367291031,1.0713878580374085,0.38493822723622984,-0.23075716380761133,0.8070962075219942,0.08480660516506036,0.0862287433874124,0,1,0
0.42084168336673344,0.4095698675027457,-0.6038932949387774,1.0776132260795248,0.311268402105816,-0.21350101330539112,0.862807525111008,0.06629478916856005,0.06748622285513257,0,1,0
0.4408817635270541,0.3970549294032412,-0.6257469049752237,1.0818396368502818,0.21132053853785632,-0.1953175736709625,0.9091719817214308,0.07510800265167013,0.07588445522553569,0,1,0
0.4609218436873747,0.38408265000322206,-0.648613970000958,1.0843265695112827,0.1243466330500437,-0.17654084691450436,0.938836337822906,0.06638154939051899,0.06676477648466593,0,1,0
0.48096192384769537,0.37074477578896253,-0.6668937107129759,1.0848252311667865,0.024933082775188103,-0.15748671652565843,0.9527065194422992,0.08129328760199481,0.08208597412663723,0,1,0
0.501002004008016,0.3569996035775212,-0.6872586105720662,1.083786040605229,-0.05195952807787174,-0.1378283177297278,0.9829199397965309,0.07824154264275192,0.07852568143268805,0,1,0
0.5210420841683366,0.34290875697978224,-0.7045423298869474,1.0811219901339384,-0.13320252356453177,-0.11797383664697689,0.992724054137546,0.09008967023098581,0.09025892179317624,0,1,0
0.5410821643286573,0.3284701766879635,-0.7219290145909343,1.0771880922819956,-0.19669489259713654,-0.09801563260213297,0.9979102022421946,0.12963828728543011,0.12966686647037468,0,1,0
0.561122244488978,0.31359963735467156,-0.7435269666645968,1.0731545521208659,-0.20167700805648942,-0.07806646952163053,0.9974581540251233,0.08830266552914295,0.08819409860519704,0,1,0
0.5811623246492986,0.2984942815205228,-0.7552677917074354,1.0678089415335237,-0.26728052936710534,-0.05823602079240157,0.9915224364614482,0.1400486570994508,0.1399700907436479,0,1,0
0.6012024048096192,0.28308716738180645,-0.7703557069358172,1.0626868248991084,-0.2561058317207709,-0.03850000701598525,0.9868006888208161,0.10029772643909915,0.09993209703641914,0,1,0
0.6212424849699398,0.26752973324728374,-0.7778717067261341,1.0566134715691287,-0.30366766649898785,-0.019087809016914786,0.9706098999535235,0.10126041536913898,0.10092594659790792,0,1,0
0.6412825651302605,0.2518798453287467,-0.7824943959268515,1.0496221679879467,-0.34956517905909235,2.626128423214271e-05,0.9557035150573464,0.0829299396432656,0.08175243932496211,0,1,0
0.6613226452905812,0.23620664076346284,-0.7836602282641917,1.0411605453401644,-0.42308113238910894,0.01816859824139114,0.9071168478579499,0.09259142351764027,0.09161674705687357,0,1,0
0.6813627254509018,0.22055721293999062,-0.7824713911736115,1.0315207304806167,-0.48199074297739136,0.03550364270557511,0.8667522232091983,0.10122050633512945,0.10012927018601764,0,1,0
0.7014028056112224,0.20498600343738785,-0.7785604751301379,1.0209581820610298,-0.5281274209793394,0.05193994122975846,0.8218149262091674,0.15129063995622444,0.15019574327621762,0,1,0
0.721442885771543,0.18959751268366093,-0.7694245376863463,1.0109556835667082,-0.5001249247160788,0.06747648560799328,0.7768272189117421,0.18120338508169626,0.178834212115239,0,1,0
0.7414829659318637,0.17450954750845504,-0.7543982587602938,1.0023752275307647,-0.4290228017971697,0.08109583575738245,0.680967507469458,0.14389067558555974,0.14190554813331663,0,1,0
0.7615230460921844,0.15972960798537506,-0.7389969761539997,0.9941119760348996,-0.41316257479325114,0.09310891628094556,0.6006540261781557,0.2160018418411841,0.21330458029098764,0,1,0
0.781563126252505,0.14548671526651483,-0.7121446359430108,0.9882801249286115,-0.29159255531440487,0.10294896023541061,0.4920021977232536,0.156241718113006,0.15528385500956576,0,1,0
0.8016032064128256,0.13169308019010323,-0.6896817538205806,0.9831317324733921,-0.25741962276096947,0.11201100571192138,0.4531022738255396,0.12247364266162575,0.12080128216039729,0,1,0
0.8216432865731462,0.11828898394447497,-0.670204812281413,0.9776554817081992,-0.27381253825965096,0.11972468325834373,0.38568387732111814,0.19270631596369847,0.19014132326297212,0,1,0
0.8416833667334669,0.1055373526909563,-0.6375815626759342,0.973903057138258,-0.1876212284970584,0.12537787671685366,0.28265967292549454,0.1388540433002357,0.1374379628399827,0,1,0
0.8617234468937875,0.0932915916200602,-0.6122880535448043,0.9702995434996436,-0.180175681930715,0.12989242301100218,0.22572731470742613,0.1264316320697906,0.12508747201940879,0,1,0
0.8817635270541082,0.08152784095493693,-0.5881875332561641,0.9664777126341986,-0.19109154327225514,0.13332722534096,0.17174011649788787,0.15663154342647057,0.1550499653277809,0,1,0
0.9018036072144289,0.07037741512580792,-0.5575212914564505,0.9633194353356243,-0.1579138649287148,0.13549355289918405,0.10831637791120603,0.14259267551819976,0.14129203292624395,0,1,0
0.9218436873747494,0.059800152985816014,-0.5288631069995952,0.9604135228752047,-0.1452956230209793,0.1366174480443887,0.05619475726023114,0.17482185269928974,0.17386107461723274,0,1,0
0.9418837675350701,0.04993376939486123,-0.4933191795477391,0.958709538646897,-0.08519921141538286,0.1369717715676798,0.017716176164558055,0.22936403604633832,0.22747454327876537,0,1,0
0.9619238476953907,0.041000980824513346,-0.4466394285173941,0.9597925172897115,0.05414893214072297,0.13581421249118078,-0.057877953824955024,0.19195830965904476,0.19125288558554562,0,1,0
0.9819639278557114,0.032853740950362836,-0.4073619937075257,0.9625782701006133,0.1392876405450897,0.13409329417893348,-0.08604591561236473,0.15500841971686025,0.1548320888007528,0,1,0
1.002004008016032,0.025337328549840277,-0.37582062002612804,0.9659887951054048,0.1705262502395782,0.1322328065396959,-0.09302438196187879,0.14899350043331253,0.14854202954817688,0,1,0
1.0220440881763526,0.018418715490966804,-0.3459306529436736,0.9698438292439592,0.19275170692771995,0.13001276966408598,-0.1110018437804971,0.1333032103831955,0.13238203845479588,0,1,0
1.0420841683366733,0.01202679230407851,-0.31959615934441465,0.9736762737607102,0.19162222583754976,0.12705777023378295,-0.14774997151515068,0.12403545844644988,0.12323297911851935,0,1,0
1.062124248496994,0.006116815022186549,-0.2954988640945981,0.9772168290954181,0.17702776673539425,0.1234635034243892,-0.17971334046968707,0.11842048211015559,0.11772607945095996,0,1,0
1.0821643286573146,0.0006565068190809882,-0.273015410155278,0.9803038427818743,0.15435068432281054,0.1193171102394895,-0.20731965924498447,0.12385488846382006,0.12325750629334056,0,1,0
1.1022044088176353,-0.004347220016794183,-0.25018634179375854,0.9831006699459047,0.13984135820152216,0.11469682024393195,-0.23101449977787858,0.1287264012629313,0.12830765310539646,0,1,0
1.122244488977956,-0.0088925248013674,-0.22726523922866085,0.9857554566071537,0.13273933306244756,0.10974608541304075,-0.24753674154455993,0.12668148878210117,0.12641420971701375,0,1,0
1.1422845691382766,-0.013004115350632011,-0.20557952746323055,0.9882124899516611,0.12285166722537141,0.10458647092922307,-0.2579807241908807,0.12783849941847258,0.12763251619804508,0,1,0
1.1623246492985972,-0.016697100030091342,-0.1846492339729666,0.9905090733914272,0.11482917198830739,0.0992672646188374,-0.2659603155192833,0.12791080631216706,0.12775585532351255,0,1,0
1.1823647294589177,-0.019991072308172403,-0.16469861390405297,0.9926503778815939,0.10706522450833549,0.09382948639435333,-0.27188891122420333,0.12505686605870953,0.12498962156191155,0,1,0
1.2024048096192383,-0.022914770481912206,-0.14618490868699022,0.9945557886875156,0.09527054029608521,0.0883434463675182,-0.2743020013417569,0.12654598096672287,0.1264951612301053,0,1,0
1.222444889779559,-0.02548449346490502,-0.1284861491496407,0.9962716769716708,0.08579441420776059,0.08282234386049213,-0.27605512535130294,0.11959195618699063,0.11960344866342766,0,1,0
1.2424849699398797,-0.027739193127010477,-0.11273498310527287,0.9975957968176121,0.0662059922970623,0.0773160713792833,-0.27531362406044213,0.134406185360697,0.13445191594554812,0,1,0
1.2625250501002003,-0.029662341958874114,-0.09615744159318189,0.9989681486073181,0.06861758948530082,0.07185200059067877,-0.27320353943022707,0.11508490616925847,0.11519008104599925,0,1,0
1.282565130260521,-0.03132027090259464,-0.08289644718602646,0.9998205626600494,0.0426207026365621,0.06647763394671642,-0.26871833219811697,0.13499857017869976,0.1351863445626695,0,1,0
1.3026052104208417,-0.032689392439908815,-0.06845607686570852,1.0007446426485096,0.04620399942300979,0.061258939486344935,-0.2609347230185746,0.11767098094643133,0.11791812644301683,0,1,0
1.3226452905811623,-0.03382547823990991,-0.05680429000005477,1.0012304220574637,0.024288970447709234,0.0562432230771929,-0.25078582045760156,0.13564930761375915,0.1359106633120929,0,1,0
1.342685370741483,-0.034714301640739645,-0.04444117004148683,1.0018113531961637,0.02904655693499369,0.05144160746615927,-0.2400807805516803,0.12002906194475224,0.12035298749095723,0,1,0
1.3627254509018036,-0.03540218757292532,-0.034394296609283684,1.002027379350919,0.010801307737763288,0.04690389281766903,-0.22688573242451263,0.13290532200243946,0.13324675049402673,0,1,0
1.3827655310621243,-0.035886758871060784,-0.024228564906773258,1.00226100421969,0.011681243438554796,0.04264377195612019,-0.21300604307744225,0.12924899572183027,0.1295768210225378,0,1,0
1.4028056112224447,-0.036191147083742006,-0.015219410634061186,1.0024046766244241,0.0071836202367080255,0.03865004299709607,-0.19968644795120605,0.12969665453042764,0.129993420201791,0,1,0
1.4228456913827654,-0.03633127571356238,-0.00700643149101873,1.00247199494863,0.0033659162102989294,0.03489755765973692,-0.18762426686795708,0.12990877370702,0.13018812106204286,0,1,0
1.442885771543086,-0.036322398724532474,0.0004438494514953043,1.0024696686176782,-0.00011631654759182994,0.031372113867024,-0.17627218963564564,0.13020214691959386,0.1304604310106344,0,1,0
1.4629258517034067,-0.036178793416473086,0.007180265402969366,1.0024066607626008,-0.003150392753868649,0.028056613568202597,-0.1657750149410703,0.13087367489674967,0.131110032221176,0,1,0
1.4829659318637274,-0.0359135611592839,0.01326161285945936,1.0023030339943917,-0.005181338410454393,0.024933290191515255,-0.15616616883436696,0.13128353211388755,0.13150541699152107,0,1,0
1.503006012024048,-0.035539329283305145,0.018711593798937866,1.0021711287247204,-0.006595263483564059,0.021990362715720763,-0.14714637378972506,0.13135237200647587,0.13155992224941754,0,1,0
1.5230460921843687,-0.035068297705224696,0.023551578904022246,1.0020131173881586,-0.007900566828088448,0.019216175490063197,-0.13870936128287786,0.12710378295061853,0.12841332115986967,0,1,0
1.5430861723446894,-0.03451441585477567,0.027694092522451353,1.0017197589434186,-0.014667922237003236,0.017492141994781184,-0.0862016747641007,0.12802485672347752,0.12884364346500307,0,1,0
1.56312625250501,-0.03388786912349722,0.03132733656392231,1.0013113992192575,-0.02041798620805986,0.016424635037673156,-0.053375347855401316,0.13209349008043075,0.13254555753716493,0,1,0
1.5831663326653307,-0.033193266554437995,0.03473012845296136,1.0009033570979196,-0.02040210606689301,0.015719681428277045,-0.035247680469805524,0.1309552991216779,0.13117116741935414,0,1,0
1.6032064128256511,-0.03243546222808776,0.0378902163175115,1.0004584858267587,-0.02224356355803991,0.015188006255368909,-0.02658375864540688,0.1337964741504888,0.13384417110933572,0,1,0
1.6232464929859718,-0.03161596407923559,0.04097490744260879,1.0000585427979927,-0.01999715143830454,0.014694925291413337,-0.02465404819777873,0.1325134621035125,0.13247099355037034,0,1,0
1.6432865731462925,-0.030737530222690025,0.04392169282727799,0.9996641771787527,-0.019718280961999294,0.014168273678989748,-0.026332580621179172,0.13446943322285332,0.1343717446548949,0,1,0
1.6633266533066131,-0.02980130763066685,0.04681112960115877,0.9993325444858794,-0.016581634643664484,0.013563903638794516,-0.030218502009761766,0.1329060823163312,0.13278991222444284,0,1,0
1.6833667334669338,-0.02881010339522064,0.04956021177231048,0.9990170321572766,-0.015775616430143774,0.012867095648608488,-0.0348403995093014,0.13402643926395727,0.1338998006655407,0,1,0
1.7034068136272544,-0.027765896117100224,0.05221036390602096,0.9987506978678381,-0.013316714471923983,0.012069553672318763,-0.03987709881448633,0.1331401910256316,0.13302299239240922,0,1,0
1.723446893787575,-0.026671833621218468,0.05470312479408771,0.9985074199847818,-0.012163894152818397,0.01117891629576429,-0.044531868827723614,0.1333195196076522,0.1332127387407432,0,1,0
1.7434869739478958,-0.025531038426671558,0.0570397597273454,0.9982926860772793,-0.010736695375126663,0.010203598498845548,-0.048765889845937105,0.1332947267081388,0.13320088026217503,0,1,0
1.7635270541082164,-0.02434707446811082,0.059198197928036836,0.9981059703041129,-0.009335788658323232,0.009154021884875603,-0.05247883069849736,0.13326576129161255,0.13318902644912237,0,1,0
1.783567134268537,-0.023123836659379657,0.06116189043655828,0.9979466857013789,-0.007964230136697871,0.008043941156440434,-0.05550403642175852,0.13314372205852615,0.13308241241703947,0,1,0
1.8036072144288577,-0.021865534008589902,0.0629151325394877,0.9978114620183635,-0.006761184150774261,0.006885750100766909,-0.05790955278367624,0.1330632829175578,0.13302155435544671,0,1,0
1.8236472945891782,-0.020576592842887872,0.06444705828510151,0.9976982234160341,-0.005661930116467777,0.005695156426877965,-0.05952968369444716,0.13293663557938115,0.13290871012146513,0,1,0
1.8436873747494988,-0.01926163057564042,0.06574811336237259,0.9976034374637489,-0.004739297614260835,0.004483231577938467,-0.06059624244697475,0.1328849340512616,0.13287637053370446,0,1,0
1.8637274549098195,-0.017925366748298505,0.06681319136709571,0.997525873000066,-0.003878223184142335,0.0032654842103141315,-0.06088736838121681,0.1330458771938769,0.133047670707236,0,1,0
1.8837675350701402,-0.016572570068844713,0.06763983397268951,0.9974704617593112,-0.002770562037741595,0.0020502051665302924,-0.06076395218919196,0.13242401687388175,0.13243500399674996,0,1,0
1.9038076152304608,-0.01520811568431937,0.06822271922626713,0.9974189142740197,-0.0025773742645743385,0.0008447471138884156,-0.06027290263209385,0.13066290244154272,0.13070348778847118,0,1,0
1.9238476953907815,-0.013836888802893748,0.06856134407128106,0.9973194973742997,-0.004970844986001672,-0.000327220193217101,-0.05859836535527583,0.1314816484866365,0.13154763452403523,0,1,0
1.9438877755511021,-0.012463542559758928,0.06866731215674103,0.9971968942036635,-0.00613015853181037,-0.0014454061925382984,-0.05590929996605986,0.131010227745968,0.13106312575140244,0,1,0
1.9639278557114228,-0.011092641191516543,0.0685450684121193,0.9970369638695125,-0.007996516707551101,-0.002520329251592665,-0.053746152952718354,0.1322591410182619,0.13232510074628848,0,1,0
1.9839679358717435,-0.009728577881854631,0.06820316548309556,0.9968769327591253,-0.00800155551935874,-0.0035415784019009688,-0.05106245751541515,0.13112064002949808,0.13117471669709654,0,1,0
2.004008016032064,-0.008375474389052406,0.0676551746401113,0.9966828832603104,-0.009702474940742676,-0.004518707523396058,-0.04885645607475443,0.1327202255235983,0.1327963582170149,0,1,0
2.024048096192385,-0.007037458413223612,0.06690079879143968,0.9965025539607085,-0.00901646498009665,-0.0054341106247021735,-0.04577015506530574,0.14127578295523263,0.1408036658541475,0,1,0
2.0440881763527052,-0.005719468519285592,0.06589949469690103,0.9965812907959404,0.0039368417615926465,-0.006726441407652387,-0.06461653914751071,0.13845456531000946,0.13811304295258406,0,1,0
2.064128256513026,-0.004424867685483404,0.06473004169010939,0.9968371978879678,0.01279535460136735,-0.008290889179033947,-0.07822238856907796,0.1342756456910443,0.1341937577977473,0,1,0
2.0841683366733466,-0.003158123907635646,0.06333718889238792,0.9971501212654187,0.01564616887254807,-0.009919497726824896,-0.08143042738954745,0.1342678074250551,0.1343710435819245,0,1,0
2.1042084168336674,-0.0019254556313029717,0.06163341381663371,0.9975224760176945,0.01861773761379304,-0.011464108477209503,-0.07723053751923045,0.13403542179518585,0.13422567400356913,0,1,0
2.124248496993988,-0.0007332587836784081,0.05960984238122818,0.9979485566396614,0.021304031098348154,-0.012855186520985273,-0.06955390218878862,0.1306907520097576,0.13095074243618915,0,1,0
