time,x,x_dot,z,z_dot,theta,theta_dot,u1,u2,x_ref,z_ref,theta_ref
0.0,-0.32410088223255085,-0.008300888779329413,1.4350068508498128,0.08936513914937844,-0.16128587452480628,-0.09982159568371891,0.056323375637358446,0.0572888526327137,0,1,0
0.02004008016032064,-0.3245370472226592,-0.02180824950541633,1.4345338950741315,-0.023647788784065635,-0.16250816826708925,-0.06111468711415302,0.056323374905324554,0.07467124348987304,0,1,0
0.04008016032064128,-0.32528449800659087,-0.03737253919658355,1.432056804190177,-0.12385454419773587,-0.14905114102943687,0.672851361882621,0.056323374904898665,0.06696699635234582,0,1,0
0.06012024048096192,-0.3263267937989202,-0.05211478961646575,1.427464410158345,-0.22961970159160405,-0.12709799741330938,1.097657180806372,0.05632337490515705,0.062397762098712915,0,1,0
0.08016032064128256,-0.32762924567833057,-0.0651225939705182,1.420695885596797,-0.3384262280773974,-0.1003233556453431,1.3387320883983136,0.05632337490517814,0.05922622351035387,0,1,0
0.1002004008016032,-0.32914728338688015,-0.07590188542748039,1.4117126800109865,-0.44916027929052477,-0.07127736283077982,1.4522996407281636,0.05632337490488019,0.05706470124431386,0,1,0
0.12024048096192384,-0.3308317964213039,-0.08422565172118718,1.4004913115982263,-0.5610684206380065,-0.04169554320002181,1.4790909815379014,0.05632337490634563,0.05632337490505098,0,1,0
0.1402805611222445,-0.3326330471448745,-0.09006253617853256,1.3870286167899473,-0.6731347404139522,-0.012172392385763706,1.4761575407129053,0.056323375639418666,0.05632337564066223,0,1,0
0.16032064128256512,-0.334501441298658,-0.09341970768917536,1.37133139682016,-0.7848609984893671,0.01729227525278456,1.473233381927413,0.05657419468062996,0.05632337490489343,0,1,0
0.18036072144288576,-0.3363875178248421,-0.0943038263092057,1.3534090929954437,-0.8961151912358096,0.04649807628559153,1.4602900516403479,0.05811023511804647,0.056323375176464484,0,1,0
0.2004008016032064,-0.3382414115561852,-0.09269468656715485,1.3332891056103788,-1.0059993692532367,0.07421751549218192,1.38597196032952,0.05896121888116536,0.05632337490556644,0,1,0
0.22044088176352705,-0.3400129374626675,-0.08857629532411379,1.310987549291378,-1.1150778159500345,0.09977458047469688,1.2778532491257482,0.05942274253942428,0.05632337686607151,0,1,0
0.24048096192384769,-0.34165431263301893,-0.08206875851757353,1.2865138281053496,-1.223686059301418,0.12280639043778925,1.1515904981546183,0.05972928209914664,0.05632337490499793,0,1,0
0.2605210420841683,-0.3431215064462895,-0.07335969066352839,1.25987444618664,-1.3319690959354853,0.14307455379873316,1.0134081680471982,0.0668292425641761,0.06322597375103041,0,1,0
0.280561122244489,-0.34434993856380025,-0.06142160587553688,1.2312770382484748,-1.4298703969082638,0.16042804770798333,0.8676746954625081,0.1476977294600485,0.14393747793466638,0,1,0
0.3006012024048096,-0.34495993156289323,-0.03049964995464827,1.2030916265999816,-1.409270582424655,0.17474786479147822,0.7159908541747416,0.19719849870516537,0.19236006494213997,0,1,0
0.32064128256513025,-0.344646846677906,0.01565424424936102,1.1767376769143092,-1.317697484283615,0.1851776735802886,0.5214904394405202,0.2299733968316584,0.2246842948083545,0,1,0
0.3406813627254509,-0.3431632798497223,0.07417834140918751,1.1531456815707788,-1.1795997671765241,0.19136373580650293,0.3093031113107153,0.24172057705065084,0.23639776321852762,0,1,0
0.3607214428857715,-0.3403781291802779,0.13925753347222153,1.132637003610581,-1.0254338980098874,0.19328514889851378,0.09607065460054035,0.2392043524799966,0.23423761280838318,0,1,0
0.3807615230460922,-0.33626347278136454,0.20573281994566583,1.1151276319409726,-0.8754685834804206,0.19123149278420482,-0.10268280571545038,0.22757795926168456,0.22318366346990973,0,1,0
0.4008016032064128,-0.3308723417371818,0.2695565522091378,1.1002784615220882,-0.7424585209442232,0.18566421907464473,-0.2783636854779984,0.21154510479063957,0.2078118430995316,0,1,0
0.42084168336673344,-0.32430809513519027,0.3282123300995743,1.087629997403383,-0.6324232059352629,0.17711607589666792,-0.42740715889884295,0.19444241393946682,0.191370100261982,0,1,0
0.4408817635270541,-0.3166977194235043,0.3805187855842991,1.076696371253149,-0.5466813075117002,0.16611993291906027,-0.5498071488803797,0.17840770800279004,0.1759485492970908,0,1,0
0.4609218436873747,-0.3081725308086454,0.426259430742946,1.0670249132832244,-0.483572898496232,0.15317021543601525,-0.6474858741522531,0.1646256542109208,0.1627124247045882,0,1,0
0.48096192384769537,-0.2988566680146493,0.46579313969980485,1.0582288744499713,-0.4398019416626539,0.13870711026278004,-0.7231552586617609,0.1536063803094831,0.15216933038008199,0,1,0
0.501002004008016,-0.288861879486574,0.49973942640376434,1.0500013551463783,-0.4113759651796469,0.12311442312572388,-0.7796343568528087,0.14541555282162527,0.1443909733623905,0,1,0
0.5210420841683366,-0.2782866408430995,0.528761932173724,1.0421168723789962,-0.39422413836910825,0.10672437148733756,-0.8195025819193136,0.1398674636657449,0.13920091234379822,0,1,0
0.5410821643286573,-0.26721772947260675,0.5534455685246393,1.0344259107357818,-0.38454808216072106,0.08982500780556031,-0.844968184088865,0.13661156216408957,0.13625812970710333,0,1,0
0.561122244488978,-0.25573302473845927,0.5742352367073748,1.0268447618821088,-0.3790574426836483,0.07266788156183204,-0.8578563121864126,0.13524823364530397,0.1351711705330074,0,1,0
0.5811623246492986,-0.2439044551042805,0.591428481708939,1.0193439131223563,-0.37504243798762527,0.05547461428164098,-0.8596633640095529,0.13536392388756152,0.13553282032951688,0,1,0
0.6012024048096192,-0.23180059500471445,0.6051930049783016,1.011935960864195,-0.3703976129080683,0.03844202313546384,-0.8516295573088568,0.1365632029302607,0.13695208214914129,0,1,0
0.6212424849699398,-0.2194886163681946,0.6155989318259917,1.0046639848801326,-0.36359879920311045,0.021745720677311658,-0.8348151229076091,0.13848624084201913,0.13907190387290305,0,1,0
0.6412825651302605,-0.20703549574807784,0.6226560310058382,0.9975909203816741,-0.35365322492292783,0.005542391042136365,-0.8101664817587646,0.14081779092781233,0.14157852946266314,0,1,0
0.6613226452905812,-0.19450850227574665,0.6263496736165592,0.9907902262964028,-0.34003470426356597,-0.010028963076695275,-0.7785677059415819,0.1432910440788057,0.14420574693760627,0,1,0
0.6813627254509018,-0.18197506666583754,0.6266717804954557,0.9843379965370043,-0.32261148796992795,-0.024846487855258916,-0.7408762389281818,0.1456883725185062,0.14673599903662995,0,1,0
0.7014028056112224,-0.16950217190589711,0.6236447379970219,0.9783065618257958,-0.3015717355604259,-0.038805367043005294,-0.6979439593873193,0.14784012140219419,0.14899948713741684,0,1,0
0.721442885771543,-0.1571554220296774,0.6173374938109867,0.9727595612666932,-0.27735002795513086,-0.051817882886961125,-0.6506257921977923,0.14962209586083905,0.15087190358344804,0,1,0
0.7414829659318637,-0.14499794330310778,0.6078739363284805,0.9677484130959559,-0.2505574085368585,-0.06381345416636199,-0.5997785639700425,0.15095210582091706,0.1522711521161197,0,1,0
0.7615230460921844,-0.13308925722158677,0.595434304076051,0.9633100764379009,-0.22191683290275366,-0.07473851212379394,-0.5462528978715981,0.15178578705718584,0.15315327848538335,0,1,0
0.781563126252505,-0.12148424098217077,0.5802508119707999,0.9594659673871558,-0.19220545253725418,-0.08455612790411002,-0.4908807890158051,0.1521118585991981,0.15350777883002734,0,1,0
0.8016032064128256,-0.11023226215350243,0.5625989414334173,0.9562218721179524,-0.1622047634601745,-0.09324535180241578,-0.43446119491528684,0.15194696503266003,0.15335244403214193,0,1,0
0.8216432865731462,-0.0993765433994766,0.5427859377012917,0.9535686865675445,-0.13265927752039958,-0.10080026346442916,-0.3777455831006696,0.15133026291045532,0.15272790994722238,0,1,0
0.8416833667334669,-0.08895378322098116,0.5211380089247718,0.9514838063606446,-0.10424401034499456,-0.10722876240935153,-0.3214249472461189,0.15031792763021715,0.1516921007667176,0,1,0
0.8617234468937875,-0.07899403214831026,0.49798755363354513,0.9499329917665479,-0.07754072970483633,-0.11255114973745489,-0.26611936640516776,0.1489777704232421,0.15031476570487534,0,1,0
0.8817635270541082,-0.06952080237822941,0.47366148850404216,0.9488725401385705,-0.05302258139886806,-0.11679856496785676,-0.2123707615200924,0.14738415765637472,0.1486723109685049,0,1,0
0.9018036072144289,-0.06055137350380873,0.4484714437210342,0.9482516117509149,-0.031046419382781777,-0.12001134729059316,-0.16063911613682208,0.14561341410853781,0.146843117242525,0,1,0
0.9218436873747494,-0.0520972479984267,0.4227062752691013,0.9480145732810061,-0.01185192349543997,-0.12223738907871746,-0.1113020894062154,0.1437398642970245,0.1449035037811609,0,1,0
0.9418837675350701,-0.04416470708740439,0.39662704555111555,0.9481032451706836,0.004433594483869034,-0.1235305425421192,-0.06465767317008717,0.1418326197092578,0.14292445208279256,0,1,0
0.9619238476953907,-0.03675541963230303,0.37046437275506794,0.9484589632049689,0.017785901714265563,-0.1239491294244367,-0.02092934411587242,0.13995319563851855,0.14096917584360918,0,1,0
0.9819639278557114,-0.029867062503878838,0.3444178564212095,0.9490243901834541,0.028271348924255348,-0.12355459033579025,0.01972695443232121,0.1381539526649186,0.13909153326860157,0,1,0
1.002004008016032,-0.023493919120564893,0.31865716916569714,0.9497450380777244,0.036032394713516845,-0.12241030868028278,0.057214082775373466,0.13647724251931675,0.13733516741959897,0,1,0
1.0220440881763526,-0.017627431809934275,0.29332436553153096,0.9505704815082225,0.04127217152490696,-0.1205806553544126,0.09148266629350937,0.13495517914146793,0.1357333072646859,0,1,0
1.0420841683366733,-0.012256692651023696,0.26853695794552895,0.9514552612889295,0.04423898903534944,-0.11813009819979889,0.1225278577306868,0.13360997409722064,0.13430906235106715,0,1,0
1.062124248496994,-0.007368865705588325,0.24439134727176853,0.9523594911964588,0.04521149537646381,-0.11512247277627073,0.1503812711764068,0.13245464421033085,0.13307614994436895,0,1,0
1.0821643286573146,-0.0029495397790107987,0.22096629632887632,0.9532491919122431,0.04448503578921745,-0.11162041294702414,0.17510299146232802,0.13149402579304637,0.13203994155205,0,1,0
1.1022044088176353,0.001016983982502843,0.19832618807568209,0.9540963843354209,0.0423596211588887,-0.10768491541342037,0.19677487668018903,0.1307259786958062,0.1311986986017582,0,1,0
1.122244488977956,0.004547461827155155,0.1765238922326156,0.9548789792699042,0.0391297467241648,-0.1033750128072484,0.21549513030859963,0.130142663524565,0.13054487884443527,0,1,0
1.1422845691382766,0.007659524717733143,0.1556031445288994,0.955580502049594,0.035076138984489684,-0.09874753186608753,0.2313740470580429,0.12973180062114742,0.13006642084777306,0,1,0
1.1623246492985972,0.010371532890595819,0.1356004086431338,0.9561896897108925,0.0304593830649231,-0.09385691613763328,0.24453078642271403,0.129477845746785,0.1297479408810659,0,1,0
1.1823647294589177,0.012702457693712872,0.11654624015585272,0.9566999955978677,0.025515294348759113,-0.08875509610317857,0.25509100172273474,0.12936304932406126,0.12957180890367112,0,1,0
1.2024048096192383,0.014671781771750225,0.09846620390186761,0.9571090326968403,0.020451854948635724,-0.08349139317713601,0.2631851463021282,0.12936838249118662,0.12951908713209634,0,1,0
1.222444889779559,0.01629941007459594,0.08138141514228572,0.9574179829917264,0.01544751474430573,-0.0781124474335269,0.2689472871804556,0.12947432787715207,0.1295703295456518,0,1,0
1.2424849699398797,0.01760558573955062,0.06530878324773395,0.9576309961105215,0.010650655939751142,-0.07266216194492942,0.2725142744298733,0.1296615391467274,0.12970624695850655,0,1,0
1.2625250501002003,0.018610806487895405,0.050261037417239376,0.9577545966539446,0.00618002717115497,-0.06718165919087961,0.2740251377024908,0.12991137655003948,0.12990824552165778,0,1,0
1.282565130260521,0.019335738678245146,0.036246609517487045,0.957797115936468,0.002125964126169998,-0.06170924706041378,0.2736206065232912,0.13020632896786097,0.13015884977115036,0,1,0
1.3026052104208417,0.01980112749743018,0.02326944095925164,0.9577681605138261,-0.0014477711320948963,-0.056280393539929224,0.2714426760242275,0.13053033045161405,0.130442018801269,0,1,0
1.3226452905811623,0.02002770290893409,0.011328770575195459,0.95767812674366,-0.0045016885083027074,-0.05092771027933372,0.26763416302977466,0.13086898424860627,0.13074336907073425,0,1,0
1.342685370741483,0.02003608189321664,0.00041894921412750225,0.9575377678988566,-0.007017942240172129,-0.04568094591663884,0.2623382181347438,0.13120970434488805,0.13105031429372135,0,1,0
1.3627254509018036,0.019846668505837474,-0.00947066936895823,0.9573578182667775,-0.0089974816039551,-0.040566990392594204,0.2556977762022312,0.1315417820903519,0.1313521298786323,0,1,0
1.3827655310621243,0.019479555794600874,-0.018355635561829956,0.957148676147343,-0.010457105971722069,-0.03560989191992312,0.24785492363355469,0.13185639996023726,0.13163996160305888,0,1,0
1.4028056112224447,0.0189544270851038,-0.026256435474853734,0.9569201430369921,-0.011426655517543332,-0.030830890597276565,0.238950066132327,0.13214660336428158,0.13190680043383818,0,1,0
1.4228456913827654,0.018290457529788976,-0.03319847776574106,0.956681220256942,-0.011946139002506925,-0.026248466183357248,0.22912122069596627,0.13240719581651253,0.1321473810289616,0,1,0
1.442885771543086,0.017506220689794957,-0.039211841999701,0.9564399598248051,-0.012063021606846606,-0.021878397301153204,0.21850344411020178,0.1326346151758989,0.13235805634777137,0,1,0
1.4629258517034067,0.01661960212654312,-0.04433092816259182,0.9562033653441094,-0.011829724034786155,-0.017733833323913404,0.2072281988619902,0.13282679026886143,0.1325366533354048,0,1,0
1.4829659318637274,0.01564772149553777,-0.04859403155026748,0.9559773382476389,-0.01130135482352897,-0.013825379647436008,0.19542268382386976,0.1329829786818528,0.1326823107353326,0,1,0
1.503006012024048,0.014606864314572716,-0.052042859048252774,0.955766664196077,-0.010533702578089669,-0.010161196294237786,0.18320916765991097,0.13310359182486023,0.1327953049653961,0,1,0
1.5230460921843687,0.01351242423956831,-0.05472200375022028,0.9555750340786333,-0.009581505872184547,-0.006747109169150262,0.17070435625437627,0.13319001340895717,0.13287687002504964,0,1,0
1.5430861723446894,0.012378856338108011,-0.056678395073014955,0.9554050938984765,-0.008497009007843316,-0.00358673280045612,0.15801881843470714,0.13324441693965391,0.1329290168725913,0,1,0
1.56312625250501,0.011219641522305627,-0.05796074079011921,0.9552585178364075,-0.007328803103451799,-0.0006816030455106124,0.1452564877472754,0.13326958724362323,0.1329543571421181,0,1,0
1.5831663326653307,0.01004726200405464,-0.05861897591254931,0.955136098951729,-0.006120944233920741,0.0019686819975187793,0.13251425215146953,0.13326875033432356,0.13295593537434347,0,1,0
1.6032064128256511,0.008873187377741733,-0.058703731315645304,0.9550378522759572,-0.004912333788591295,0.00436631476303673,0.11988163827589754,0.13324541524651154,0.13293707327762033,0,1,0
1.6232464929859718,0.00770787072460471,-0.05826583265685117,0.9549631254602206,-0.0037363407868297753,0.006515126610581009,0.10744059237721387,0.13320323112782423,0.13290122921227637,0,1,0
1.6432865731462925,0.006560753971767582,-0.057355837641856366,0.9549107126384191,-0.00262064109007079,0.008420433738341606,0.09526535638802977,0.13314585944400276,0.13285187267724793,0,1,0
1.6633266533066131,0.005440281626635854,-0.05602361725658641,0.9548789676618098,-0.0015872488304627308,0.01008888242611507,0.08342243438867325,0.13307686625721662,0.13279237870487304,0,1,0
1.6833667334669338,0.004353921940872062,-0.054317984288189625,0.9548659134965359,-0.0006527082636924324,0.011528295281028363,0.07197064274566448,0.13299963359731012,0.1327259411369703,0,1,0
1.7034068136272544,0.0033081945326324733,-0.05228637041197943,0.9548693451765222,0.00017158399931490535,0.01274751998786512,0.06096123534183808,0.1329172876267723,0.13265550246126998,0,1,0
1.723446893787575,0.0023087035035960525,-0.04997455145182105,0.9548869242307335,0.0008789527105662454,0.013756281877860608,0.05043809449977443,0.13283264833164846,0.13258370493339589,0,1,0
1.7434869739478958,0.0013601751237368193,-0.04742641899296166,0.9549162631643562,0.001466946681131051,0.01456504143706894,0.04043797796041651,0.13274818920254486,0.13251285144043948,0,1,0
1.7635270541082164,0.0004664992099535732,-0.04468379568916231,0.9549549988859425,0.0019367860793146434,0.0151848576768527,0.030990811989187773,0.1326660159592002,0.132444885183374,0,1,0
1.783567134268537,-0.0003692266055625833,-0.041786290775807824,0.9550008545480632,0.0022927831060347795,0.015627258110089196,0.02212002166182496,0.13258786754804897,0.1323813914109879,0,1,0
1.8036072144288577,-0.0011446504407058625,-0.03877119175716395,0.9550516899349284,0.00254176934326167,0.01590411590077707,0.013842889534393582,0.13251511771341531,0.13232359952288597,0,1,0
1.8236472945891782,-0.0018581182110527226,-0.035673388517343,0.9551055405489632,0.0026925307017407504,0.016027534592676487,0.006170934594970704,0.13244879049092556,0.13227239893364068,0,1,0
1.8436873747494988,-0.0025086247286685483,-0.03252532588079129,0.9551606459594125,0.0027552705224645757,0.01600974069558447,-0.000889694854600831,0.13238958265486186,0.13222836173655014,0,1,0
1.8637274549098195,-0.003095764347741766,-0.02935698095366087,0.9552154681775555,0.002741110907150541,0.015862984311645796,-0.007337819196933869,0.13233789597269816,0.13219177503467744,0,1,0
1.8837675350701402,-0.003619681583229325,-0.026195861774377965,0.955268701106923,0.002661646468373553,0.015599449445151396,-0.01317674332471977,0.1322938686608968,0.1321626714842016,0,1,0
1.9038076152304608,-0.004081022070876186,-0.023067024382343034,0.9553192720720024,0.002528548253974333,0.015231170446858974,-0.018413949914621218,0.13225741112259246,0.13214086587438464,0,1,0
1.9238476953907815,-0.0044808841768425225,-0.019993105298316827,0.9553663365739148,0.0023532250956180382,0.014769955304691905,-0.023060757108353473,0.13222824325902666,0.13212599289528057,0,1,0
1.9438877755511021,-0.004820771527464017,-0.01699436753107469,0.9554092674539423,0.0021465440013762457,0.014227317361109866,-0.0271318971791019,0.1322059315585133,0.13211754375182197,0,1,0
1.9639278557114228,-0.005102546696155962,-0.014088758434597283,0.9554476396164088,0.001918608123323702,0.013614415071167752,-0.030645114497105833,0.1321899247301972,0.1321149013505952,0,1,0
1.9839679358717435,-0.005328386250144155,-0.01129197769940962,0.9554812114105169,0.0016785897054041065,0.012941999436606368,-0.033620781728069385,0.13217958738812194,0.13211737355403266,0,1,0
2.004008016032064,-0.005500737331089417,-0.00861755404726309,0.9555099037042285,0.0014346146855809502,0.012220368764232012,-0.036081533618717666,0.13217423084601712,0.13212422355514633,0,1,0
2.024048096192385,-0.005622275919794574,-0.0060769294352578575,0.9555337775891942,0.0011936942482832504,0.011459330404135158,-0.0380519180048426,0.13217314070128452,0.13213469704627004,0,1,0
2.0440881763527052,-0.005695866914683976,-0.0036795497444700913,0.955553011552605,0.0009616981705373804,0.010668169126782388,-0.03955806386763829,0.13217560088328403,0.13214804585329662,0,1,0
2.064128256513026,-0.0057245261356943964,-0.0014329610505210096,0.9555678788396741,0.0007433643534548065,0.009855621798792664,-0.040627366399486387,0.13218091399838838,0.13216354786530754,0,1,0
2.0841683366733466,-0.005711384348832115,0.0006570893431140728,0.9555787256138157,0.0005423387070815402,0.009029858016098229,-0.04128818913472184,0.132188418013218,0.13218052329934812,0,1,0
2.1042084168336674,-0.005659653408494672,0.0025865470168721432,0.9555859503980363,0.00036123921102987604,0.00819846635090492,-0.041569583259665435,0.13219749941238942,0.13219834745981623,0,1,0
2.124248496993988,-0.005572594708953214,0.0043529349770729114,0.9555899852058055,0.0002017403884612413,0.007368445885219286,-0.04150102328428158,0.13220760267052667,0.13221645997523565,0,1,0
