time,x,x_dot,z,z_dot,theta,theta_dot,u1,u2,x_ref,z_ref,theta_ref
0.0,0.9083022059240091,0.05358641812711987,0.6259707467882021,0.06539761718614898,0.13962882937247825,-0.030043432667085312,0.2966828774947087,0.2960977243699605,0,1,0
0.02004008016032064,0.9105952351657627,0.11465146208768053,0.6320540309162157,0.3041642064006804,0.1385603333559751,-0.05342480082515769,0.2174120914327257,0.14577493167459085,0,1,0
0.04008016032064128,0.9136346745767574,0.151971970549734,0.6395390499934442,0.3742509538614243,0.08018304271189561,-2.918864532203974,0.06032528425677444,0.05632337490699346,0,1,0
0.06012024048096192,0.9169093848290216,0.16373551261321206,0.6448072279975231,0.263408900203943,0.01879269696135399,-3.06951728752708,0.07138399931132756,0.056323374904880465,0,1,0
0.08016032064128256,0.9203322034823468,0.1711409326662575,0.64803576667028,0.16142693363784255,-0.05442358763316585,-3.6608142297259922,0.06370533431369564,0.05632337490488379,0,1,0
0.1002004008016032,0.9237850549406761,0.17264257291646232,0.6491190039904531,0.05416186600865863,-0.13325661954820844,-3.941651595752129,0.056323374920573696,0.057214813441325174,0,1,0
0.12024048096192384,0.92714314645152,0.16790457554219226,0.6479607747294605,-0.05791146304963031,-0.21106706369839914,-3.890522207509532,0.1926851417378016,0.1960462778431395,0,1,0
0.1402805611222445,0.9297329208165421,0.1294887182511067,0.6485915641564236,0.031539471348160264,-0.2858923078536151,-3.741262207760797,0.1968959160246779,0.20879192094334786,0,1,0
0.16032064128256512,0.9310611919512791,0.066413556736852,0.6511785932412614,0.12935145424188627,-0.35094356419328415,-3.252562816983455,0.28317356553124606,0.29668288665758147,0,1,0
0.18036072144288576,0.9299656172746636,-0.054778733830773904,0.6580850340791862,0.3453220418962414,-0.4049889147048245,-2.7022675255770228,0.2790112871252939,0.2966828865979539,0,1,0
0.2004008016032064,0.9259391595269831,-0.20132288738402598,0.6690729793352366,0.5493972628025189,-0.4447575551291552,-1.9884320212165323,0.27956797494389934,0.29668288667345905,0,1,0
0.22044088176352705,0.9185541369219943,-0.3692511302494444,0.6839734510260833,0.7450235845423352,-0.47075001524186966,-1.2996230056357236,0.2417261007758541,0.25950456836757835,0,1,0
0.24048096192384769,0.9079851349164725,-0.5284501002760873,0.7016353266525224,0.8830937813219537,-0.482476687234234,-0.5863335996182183,0.2013569405048939,0.21600646852119854,0,1,0
0.2605210420841683,0.8946288867117652,-0.667812410235361,0.7208591406700384,0.9611907008758006,-0.4824696606845955,0.0003513274819170187,0.17146837226031178,0.18325964990438068,0,1,0
0.280561122244489,0.8788575363015816,-0.7885675205091827,0.7407849135180634,0.9962886424012505,-0.4730296176431496,0.47200215207230417,0.14831320378620066,0.1576140752519356,0,1,0
0.3006012024048096,0.8610120109671102,-0.89227626672357,0.7607693986022155,0.9992242542076043,-0.4561603255740222,0.8434646034563689,0.13118087080875887,0.13839574730820278,0,1,0
0.32064128256513025,0.8413804034832084,-0.9815803741950875,0.7803516635931849,0.9791132495484688,-0.4335448319032229,1.1307746835399644,0.11796605662788073,0.12323172035398228,0,1,0
0.3406813627254509,0.8202122212542933,-1.0584091114457563,0.7991844756002117,0.9416406003513376,-0.40675643529357663,1.3394198304823202,0.10805496384183072,0.11170238034014932,0,1,0
0.3607214428857715,0.7977172909711983,-1.1247465141547488,0.817015335447286,0.8915429923537143,-0.37710128784752395,1.482757372302628,0.10083331744623557,0.10331131720584719,0,1,0
0.3807615230460922,0.7740696480102183,-1.1823821480489998,0.8336690611357978,0.8326862844255882,-0.3455235134460651,1.5788887200729467,0.09494805754498152,0.09663536568045394,0,1,0
0.4008016032064128,0.7494231532010833,-1.2323247404567474,0.8490090409245514,0.7669989894376854,-0.31266171393547887,1.6430899755293147,0.09162670122181402,0.09276686833073855,0,1,0
0.42084168336673344,0.7238997787839734,-1.2761687208554955,0.8629692407486297,0.6980099912039122,-0.2789577585517832,1.6851977691847848,0.08782960955564263,0.08854158684235681,0,1,0
0.4408817635270541,0.6976228136524848,-1.3138482565744296,0.8754682555944997,0.6249507422935029,-0.2447569462452433,1.710040615326993,0.08664021706781197,0.08706126499036221,0,1,0
0.4609218436873747,0.6706888712915098,-1.3466971180487528,0.8864966002383577,0.5514172321929021,-0.21029364105130122,1.723165259697105,0.0847242094136459,0.0848008740200293,0,1,0
0.48096192384769537,0.6431992480465498,-1.3744811622479989,0.8960199144225055,0.4761657092073899,-0.17584412000973648,1.7224760520782374,0.08442693300275231,0.0842643475946991,0,1,0
0.501002004008016,0.6152419200515805,-1.397866399748465,0.9040486010772423,0.4014343327368378,-0.14159962051684147,1.7122249746447489,0.08425563813504316,0.08384901708600184,0,1,0
0.5210420841683366,0.5869038103427051,-1.4169054854437693,0.9105935582842474,0.3272478603502543,-0.10775453017408927,1.6922545171376095,0.08407353032955037,0.08346390986124673,0,1,0
0.5410821643286573,0.5582710565773317,-1.4316376882686725,0.9156628600833613,0.2534650899556968,-0.07446975258320564,1.664238879544182,0.085633837608728,0.0848653592454329,0,1,0
0.561122244488978,0.5294228601159368,-1.4424098230697455,0.9193134741948913,0.18253070557650103,-0.041870360040032695,1.6299696271586461,0.08512495529153113,0.08417469908951188,0,1,0
0.5811623246492986,0.5004446882302069,-1.4489085942864908,0.92153811315624,0.11123194806743722,-0.010099356879857704,1.5885501580087498,0.08710291980462641,0.08605426779099624,0,1,0
0.6012024048096192,0.47141600878881296,-1.4514339720696976,0.922401429535671,0.04316581897154942,0.02076735536939799,1.5433356124627844,0.08809346687163201,0.08688823413126345,0,1,0
0.6212424849699398,0.44241809342703164,-1.449895768089065,0.9219352416743845,-0.023309393064323114,0.05060753718058289,1.4920090905592447,0.09402433398648558,0.09267663313789491,0,1,0
0.6412825651302605,0.4135344530417849,-1.4441820192623371,0.9203153113958445,-0.08099651392699461,0.07931054869192139,1.4351505755669252,0.10296687368353782,0.10140425948932073,0,1,0
0.6613226452905812,0.38486050267797495,-1.4336975181904958,0.9178023957188637,-0.12564578384904448,0.1067080668417068,1.369875907489271,0.11394506389866674,0.11213223392848104,0,1,0
0.6813627254509018,0.3565078612402304,-1.4176320718872275,0.9147131486510719,-0.15446235338959147,0.13260392230938184,1.294792773383751,0.1256803565621075,0.12360043512150182,0,1,0
0.7014028056112224,0.3286035777624395,-1.3952141738895443,0.9113819403019162,-0.16656041745778213,0.15678885801110976,1.2092467850863977,0.13720416802001145,0.13486489283469047,0,1,0
0.721442885771543,0.3012859002006442,-1.3658838780897637,0.9081324090730603,-0.16247656144279854,0.17906017645292513,1.1135659220907685,0.1477161178781702,0.1451439296984818,0,1,0
0.7414829659318637,0.27469760848534336,-1.3294145857650428,0.9052545016374584,-0.14389537178009565,0.19923659714507427,1.0088210346074578,0.1566345079270573,0.15387102709872946,0,1,0
0.7615230460921844,0.24897832699502143,-1.2859640745160963,0.9029885088066449,-0.11329964154066965,0.21717025849728927,0.8966830676107501,0.16357181269578844,0.16066893942050053,0,1,0
0.781563126252505,0.22425690982645002,-1.2360708584285693,0.9015152113236266,-0.07366487415091694,0.2327547830868516,0.7792262294781186,0.1683278571930749,0.16534321827462822,0,1,0
0.8016032064128256,0.20064487284413296,-1.1806018491158532,0.9009517149139464,-0.0281748204840067,0.24592970378088902,0.6587460347018693,0.1708698676531091,0.1678624436744007,0,1,0
0.8216432865731462,0.17823153846168996,-1.1206667191221504,0.9013521392008175,0.020021214343549934,0.2566814110210628,0.5375853620086877,0.17130955248141713,0.16833587072240272,0,1,0
0.8416833667334669,0.1570812611413381,-1.0575138660175922,0.9027122688082517,0.06800648037171034,0.26504108502096396,0.4179836999950567,0.16987468081382096,0.1669857142900246,0,1,0
0.8617234468937875,0.1372327892298075,-0.9924235955765305,0.9049771810638588,0.1132456127803532,0.27108018345358154,0.30195492163088333,0.16687741317320873,0.16411632510734303,0,1,0
0.8817635270541082,0.1187005524164765,-0.9266118406665494,0.9080508568918839,0.15368379140125188,0.27490416160592035,0.1911989076169404,0.1626808458632695,0.16008164155687568,0,1,0
0.9018036072144289,0.10147746478774022,-0.8611543814368146,0.9118068147832008,0.18779789456584253,0.2766451474213959,0.08704929077377772,0.1576658932667893,0.1552529768626114,0,1,0
0.9218436873747494,0.0855387191083176,-0.7969372839711308,0.9160988846763204,0.2146034946559775,0.2764542890090959,-0.009542920615002393,0.15220271819713277,0.14999127206979437,0,1,0
0.9418837675350701,0.07084603652028944,-0.7346341294014082,0.9207714087560896,0.23362620398846112,0.27449442787095135,-0.09799305690722936,0.14662446347274757,0.14462144575473687,0,1,0
0.9619238476953907,0.05735186537957321,-0.6747085570358115,0.9256682330756061,0.24484121597582387,0.27093387716697753,-0.178027535198692,0.1412131236835148,0.13941858415995975,0,1,0
0.9819639278557114,0.04500317317989028,-0.6174346099841466,0.9306401876872081,0.24859773058010404,0.2659410594856159,-0.24964088406807391,0.13618925275707247,0.13459793709976586,0,1,0
1.002004008016032,0.033744581979001535,-0.5629295600444371,0.9355508394426421,0.24553258777169573,0.2596801965290178,-0.3130431478299077,0.13171121504104094,0.13031429318200907,0,1,0
1.0220440881763526,0.023520749230615916,-0.5111916374192809,0.9402805449380872,0.2364852747722559,0.25230839461438276,-0.3685900957317517,0.12787911799327753,0.12666566570442359,0,1,0
1.0420841683366733,0.014277996299237778,-0.4621376465689069,0.9447289346452703,0.22241948535915654,0.24397392842571525,-0.41672330943337577,0.12474176710630229,0.12369993991858971,0,1,0
1.062124248496994,0.005965259069269905,-0.41563686149839363,0.9488160253262672,0.2043545340498436,0.23481547554002882,-0.4579226442843233,0.12230619410756467,0.12142408072814911,0,1,0
1.0821643286573146,-0.0014655157070114057,-0.3715387388140655,0.9524822189542356,0.18330968139841863,0.22496204339874423,-0.4926716070642292,0.12054783208119599,0.1198140103868358,0,1,0
1.1022044088176353,-0.008059387689428717,-0.3296935991208655,0.9556874595023023,0.16026202740333656,0.21453334875092547,-0.5214347323909397,0.11941915097648645,0.11882299676993886,0,1,0
1.122244488977956,-0.013858724542400268,-0.2899668426485776,0.9584097745255489,0.13611575116232869,0.20364044993448785,-0.5446449408218806,0.11885741891558742,0.1183892266559856,0,1,0
1.1422845691382766,-0.018903672175953366,-0.25224738167765487,0.9606434061809096,0.11168158276803766,0.19238648006007322,-0.5626984937207307,0.11879088711731692,0.11844185771723759,0,1,0
1.1623246492985972,-0.023232700468374293,-0.21645141462104636,0.9623966952680014,0.08766445435459036,0.1808673735965969,-0.5759553231738131,0.11914374570015045,0.1189058895834684,0,1,0
1.1823647294589177,-0.02688315247820991,-0.1825226004917808,0.9636898511090588,0.0646577920528686,0.16917251774146377,-0.5847427927566571,0.11983984250320698,0.11970583663970608,0,1,0
1.2024048096192383,-0.029891745847928777,-0.15042966848594336,0.9645527086804364,0.04314287856887955,0.15738529119711217,-0.5893613272175812,0.12080234177309916,0.12076537227083237,0,1,0
1.222444889779559,-0.03229500800943761,-0.12016310807544166,0.9650224597325486,0.023487552605611303,0.14558347843480607,-0.5900906381153032,0.12197030090203906,0.12202389141315269,0,1,0
1.2424849699398797,-0.03412955275697099,-0.09172723737666916,0.9651418414304573,0.005969084895437956,0.13383954785698468,-0.5871965288910699,0.12327260941522175,0.12341052152618627,0,1,0
1.2625250501002003,-0.03543232810686333,-0.06513876749461665,0.9649570236733911,-0.009240887853313047,0.12222085130003782,-0.5809348278473424,0.12465240083969954,0.12486847223446783,0,1,0
1.282565130260521,-0.03624071641723521,-0.04041941551859419,0.9645159097257759,-0.022055697380755652,0.11078969491299505,-0.5715578193521385,0.126059112611399,0.12634719624573398,0,1,0
1.3026052104208417,-0.0365925383558676,-0.017591096931619317,0.9638666232850228,-0.03246432203765446,0.099603362154117,-0.5593166379439014,0.12744896086239474,0.1278028674669385,0,1,0
1.3226452905811623,-0.03652597279944904,0.0033282778209279343,0.9630561999571838,-0.04052116639194719,0.08871409139227222,-0.5444635380922394,0.12878503184831813,0.12919850370822633,0,1,0
1.342685370741483,-0.036079409905924016,0.02232814467625129,0.962129486702974,-0.04633566271048772,0.07816903297239385,-0.5272529209939196,0.13003722914343838,0.13050394415311625,0,1,0
1.3627254509018036,-0.03529124682713292,0.0394081539395547,0.9611282431925323,-0.05006217552208692,0.06801020977802298,-0.5079411597185425,0.131182091105113,0.1316956816145626,0,1,0
1.3827655310621243,-0.03419963621883298,0.054580530414997226,0.960090444861391,-0.05188991655707119,0.058274492915860336,-0.4867858431081324,0.132202410825535,0.13275648701949877,0,1,0
1.4028056112224447,-0.032842208786028323,0.06787137164023266,0.9590497817395482,-0.05203315609213326,0.0489935959425146,-0.46404484866728707,0.13308675695221853,0.13367494189928703,0,1,0
1.4228456913827654,-0.031255788229896324,0.07932102780659998,0.9580353390408185,-0.05072213493648465,0.040194096780914464,-0.43997495808000686,0.13382897296255483,0.13444494984702735,0,1,0
1.442885771543086,-0.029476112649658694,0.08898377901188147,0.9570714436913508,-0.04819476747338472,0.031897496895209786,-0.41482999428523426,0.1344276392489588,0.13506520655865742,0,1,0
1.4629258517034067,-0.027537573701234195,0.0969269474212249,0.956177659469942,-0.044689211070438786,0.02412032392543639,-0.38885864848866997,0.1348854944941073,0.13553862445384804,0,1,0
1.4829659318637274,-0.02547298237061301,0.10322956653105918,0.9553689119124072,-0.040437377876740455,0.016874280236819427,-0.3623021844308483,0.13520882588449457,0.13587172204333534,0,1,0
1.503006012024048,-0.023313367805096803,0.10798072827581043,0.954655723021085,-0.03565944456611321,0.010166436593891203,-0.335392182146411,0.1354068410726411,0.1360739917880549,0,1,0
1.5230460921843687,-0.021087813305525255,0.11127772497857749,0.9540445352340728,-0.030559389350607907,0.003999467597323756,-0.3083484498283724,0.1354910366427116,0.1361572620412996,0,1,0
1.5430861723446894,-0.018823331410200445,0.11322409476624044,0.9535381040877116,-0.025321557318064753,-0.0016280763800462133,-0.28137719886849843,0.13547457846786226,0.13613506924812427,0,1,0
1.56312625250501,-0.016544778081023965,0.11392766645882406,0.9531359395422514,-0.02010822727300891,-0.006721467294982214,-0.2546695457467999,0.13537170904554313,0.13602205619952948,0,1,0
1.5831663326653307,-0.014274804396353816,0.11349868423350745,0.9528347769944759,-0.015058127388774541,-0.011289474817542914,-0.228400376128035,0.13519719598312144,0.13583341113480182,0,1,0
1.6032064128256511,-0.012033842898904733,0.11204807487245416,0.9526290605143893,-0.010285824004331052,-0.01534402645540572,-0.20272758189314027,0.13496583324171957,0.1355843598208433,0,1,0
1.6232464929859718,-0.009840124850235124,0.10968590243348043,0.9525114227122565,-0.005881890106639085,-0.018899859680461067,-0.17779166125276732,0.13469200305164705,0.13528971893315747,0,1,0
1.6432865731462925,-0.007709724091175195,0.10652003795299642,0.9524731477351698,-0.001913748854337479,-0.021974172798798618,-0.15371565591687764,0.13438931139824822,0.1349635239320693,0,1,0
1.6633266533066131,-0.00565662297035521,0.10265505604099924,0.9525046063396909,0.001572930226056877,-0.0245862805544456,-0.13060538778234887,0.13407029210049312,0.13461872667348224,0,1,0
1.6833667334669338,-0.0036927958300122,0.09819135701715051,0.9525956542486401,0.004552395447458614,-0.02675727953808272,-0.10854994918185622,0.13374618641811098,0.13426696975736593,0,1,0
1.7034068136272544,-0.0018283057787607936,0.09322450256257032,0.9527359874226562,0.0070166587008017684,-0.02850972750353824,-0.08762239827277594,0.13342679839518612,0.13391843785121552,0,1,0
1.723446893787575,-7.141087929841321e-05,0.08784474497311902,0.952915450260863,0.008973141910339356,-0.029867339706821348,-0.0678806101641554,0.13312038839077125,0.1335817483920144,0,1,0
1.7434869739478958,0.0015713236502494573,0.08213672647739352,0.9531242939737617,0.01044218564493506,-0.03085470443507245,-0.04936823641255514,0.1328336725856579,0.1332639492549534,0,1,0
1.7635270541082164,0.0030949100470561734,0.0761793198403358,0.9533533855695032,0.01145457978707334,-0.03149701910834764,-0.03211573366375878,0.13257184169455088,0.13297053664984118,0,1,0
1.783567134268537,0.004495821727984678,0.07004558404642523,0.9535943684919428,0.012049146121977085,-0.03181984752873378,-0.016141421019307083,0.1323386316169128,0.1327055256280074,0,1,0
1.8036072144288577,0.00577187790375653,0.06380280878859257,0.9538397774883544,0.012270449820577246,-0.031848898324081075,-0.001452539767364704,0.1321364264816462,0.13247155358403692,0,1,0
1.8236472945891782,0.006922130392560016,0.0575126244401743,0.9540831112273019,0.012166686947378512,-0.03160982416323524,0.011953708042291494,0.13196639333929408,0.1322700158208631,0,1,0
1.8436873747494988,0.007946753535061354,0.0512311571250669,0.9543188670938968,0.011787793329741855,-0.031128045569658265,0.024088929678848736,0.13182862700338202,0.13210121408253875,0,1,0
1.8637274549098195,0.008846937789702483,0.04500921273205644,0.9545425428886778,0.0111837897390489,-0.030428592045354617,0.03497267621518264,0.13172230359071863,0.13196451075418428,0,1,0
1.8837675350701402,0.009624787317352144,0.038892476382483075,0.9547506103224935,0.010403371690789233,-0.029535951969892754,0.044632003773093024,0.1316458456288483,0.1318584904430553,0,1,0
1.9038076152304608,0.01028322168019449,0.032921718142117334,0.9549404654343682,0.00949275559373021,-0.028473942095135867,0.053100493737844215,0.13159707921369823,0.13178111955944613,0,1,0
1.9238476953907815,0.010825881694596357,0.027133000720093378,0.9551103608682457,0.00849477169388068,-0.027265594749288493,0.060417367292368955,0.13157338403151214,0.13172989841512525,0,1,0
1.9438877755511021,0.011257039395494791,0.02155788504492173,0.9552593246853799,0.007448190856707143,-0.025933061069947572,0.06662668396704591,0.13157183396010297,0.13170200356538098,0,1,0
1.9639278557114228,0.011581512030674338,0.01622363175897735,0.955387070065766,0.006387269019302175,-0.024497528851596645,0.07177661091754645,0.13158932442089494,0.13169441662119966,0,1,0
1.9839679358717435,0.011804579998025203,0.011153398367543255,0.955493899819565,0.00534148768995186,-0.022979153815486663,0.0759187518054993,0.13162268545107564,0.13170403854960974,0,1,0
2.004008016032064,0.011931908655058455,0.006366432851662572,0.9555806091706172,0.004335467552609645,-0.021397003294081694,0.07910752607024804,0.13166877921536874,0.1317277882274237,0,1,0
2.024048096192385,0.01196947395970803,0.0018782652324787494,0.955648389780516,0.0033890304949424997,-0.019769011470514766,0.08139959117834648,0.13172458172706977,0.13176268505919192,0,1,0
2.0440881763527052,0.01192349194413952,-0.0022991007784255307,0.9556987374768495,0.002517384816672976,-0.01811194542936756,0.08285330205736072,0.13178724907447817,0.13180591598227162,0,1,0
2.064128256513026,0.011800352219002937,-0.0061569862568291,0.9557333656289534,0.0017314076051923293,-0.016441381370003803,0.08352820296818761,0.1318541694709773,0.13185488798970038,0,1,0
2.0841683366733466,0.011606555740523229,-0.009689823923985449,0.9557541259716524,0.0010380171349541774,-0.014771690579049939,0.08348453954769305,0.13192299853542966,0.13190726368475297,0,1,0
2.1042084168336674,0.01134865597999609,-0.012894988026356906,0.9557629377494747,0.00044058889111697806,-0.013116034918384686,0.08278278303326275,0.1319916819009852,0.13196098563209616,0,1,0
2.124248496993988,0.011033203937058979,-0.015772602146855545,0.9557617256527796,-6.060483475679257e-05,-0.011486370411495936,0.08148322534443739,0.13205846945906857,0.1320142914303523,0,1,0
2.1442885771543083,0.010666697299192392,-0.0183253318933293,0.9557523670884253,-0.0004679282177196733,-0.009893458244479101,0.07964560835084165,0.13212191762203476,0.13206571641204595,0,1,0
