time,x,x_dot,z,z_dot,theta,theta_dot,u1,u2,x_ref,z_ref,theta_ref
0.0,0.40830606322713914,0.03233374416049481,0.5689932362320225,0.040560329421943764,-0.07241511435430968,-0.00998086515792855,0.29640459032608035,0.2966828778478231,0,1,0
0.02004008016032064,0.4083164758606326,0.0005206316746707226,0.5746472133401449,0.28269885540612305,-0.07239194035235244,0.0011587000978613322,0.2966828865787076,0.28008300397549435,0,1,0
0.04008016032064128,0.4077086544925668,-0.030391068403288646,0.5848976742832367,0.5125230471545874,-0.0856486909900824,-0.6628375318865001,0.19966629282181597,0.19317785756650963,0,1,0
0.06012024048096192,0.4066806221115101,-0.05140161905283426,0.5970203946965819,0.6061360206672596,-0.1040780986663471,-0.9214703838132315,0.2537098555478824,0.25006054896662855,0,1,0
0.08016032064128256,0.405015474781091,-0.08325736652095528,0.6126434252718029,0.7811515287610563,-0.12539812658877503,-1.0660013961213963,0.2246308156273007,0.22665368931449997,0,1,0
0.1002004008016032,0.40265812704396015,-0.1178673868565445,0.6309736574371863,0.9165116082691672,-0.14506498557604505,-0.9833429493635009,0.19332815074507023,0.1972361133068764,0,1,0
0.12024048096192384,0.39958073714623255,-0.15386949488637916,0.6510963790544296,1.0061360808621695,-0.16157487421124792,-0.8254944317601463,0.16821556810498392,0.17275783826254923,0,1,0
0.1402805611222445,0.39577809273049946,-0.19013222078665376,0.6722650171805755,1.0584319063072953,-0.17442733098817054,-0.6426228388461293,0.14936760444579852,0.15402695640701974,0,1,0
0.16032064128256512,0.3912586815067283,-0.22597056118855768,0.6939147000509319,1.0824841435178203,-0.18353572466425008,-0.4554196838039794,0.13474062631513797,0.13923506070595382,0,1,0
0.18036072144288576,0.3860424855932165,-0.2608097956755895,0.7156052203519904,1.084526015052925,-0.18903811474693594,-0.2751195041342887,0.12366021170767356,0.12783752141812163,0,1,0
0.2004008016032064,0.3801551157307248,-0.294368493124587,0.7370023468508412,1.0698563249425443,-0.19119309468671714,-0.10774899698906118,0.11529900224667297,0.11908164294821452,0,1,0
0.22044088176352705,0.3736251862456358,-0.3264964742544494,0.7578538098504937,1.042573149982625,-0.19032005935035193,0.043651766818259274,0.10863772656371642,0.1119832369666897,0,1,0
0.24048096192384769,0.36648508140168146,-0.35700524219771523,0.7779592690325816,1.0052729591043958,-0.18677134562745565,0.1774356861448174,0.1038984081743141,0.10681729065447916,0,1,0
0.2605210420841683,0.35876623760607124,-0.38594218978051215,0.7971768328868925,0.9608781927155423,-0.18089088332950468,0.2940231148975499,0.09984504241714934,0.10233631515326808,0,1,0
0.280561122244489,0.35050377757937445,-0.41312300133483854,0.8153862911200572,0.9104729116582397,-0.1730235248648571,0.39336792323237835,0.0972399817663282,0.09934729047321672,0,1,0
0.3006012024048096,0.34173057733324586,-0.4386600123064313,0.8325115015943146,0.8562605237128728,-0.16347914130720023,0.4772191778828428,0.09480079585757688,0.0965405112853391,0,1,0
0.32064128256513025,0.33248312425687554,-0.4623726538185144,0.8484821917800119,0.7985345092848627,-0.15255432811567612,0.5462406595762043,0.09348920863944646,0.09490673110115308,0,1,0
0.3406813627254509,0.3227956465708545,-0.4843738843010521,0.8632621539308634,0.7389981075425728,-0.14050907853949302,0.6022624788091566,0.0921387892301386,0.09322514784702604,0,1,0
0.3607214428857715,0.31270545538629224,-0.504509559228115,0.876814083738032,0.6775964903584367,-0.1276102448369034,0.6449416851294799,0.09158050083051081,0.09238865932468958,0,1,0
0.3807615230460922,0.30224846132094607,-0.5228497032673072,0.8891246222720548,0.6155269267011351,-0.11408191238577858,0.6764166225562432,0.0910316569881649,0.0916524969869879,0,1,0
0.4008016032064128,0.29146215719723545,-0.5393152061855302,0.9001817841384581,0.5528580933201619,-0.1000750966810202,0.7003407852379164,0.09102961624498634,0.09147798231777741,0,1,0
0.42084168336673344,0.2803833588041662,-0.5539399196534613,0.9099895090363784,0.4903862448960167,-0.08572867639117411,0.7173210144923072,0.09127672586021676,0.09155735830538997,0,1,0
0.4408817635270541,0.2690493639824047,-0.5666997410880755,0.9185586838239241,0.4284587393772881,-0.07117748317547243,0.7275596607850826,0.09169781875626229,0.09182313487914243,0,1,0
0.4609218436873747,0.25749808184833367,-0.5775641067035512,0.9259049771332487,0.3673146654662279,-0.05654615811799764,0.7315662528737384,0.09267682880064428,0.09265839042685768,0,1,0
0.48096192384769537,0.24576709841811886,-0.5865491715107408,0.9320601254394786,0.30775741531149525,-0.04194985026720786,0.7298153925394899,0.09314797631193023,0.09299372035568108,0,1,0
0.501002004008016,0.23389586442473329,-0.5935616996692786,0.9370403351460591,0.24901048532902587,-0.027497133169766378,0.722635854872074,0.09502903560817198,0.09474956172682714,0,1,0
0.5210420841683366,0.22192233154919525,-0.5986766437769019,0.9409030574456105,0.19313611497756997,-0.01328788924158286,0.710462196409176,0.09841377186545096,0.09801089495041272,0,1,0
0.5410821643286573,0.20988439670807374,-0.6018967420560754,0.9437496406838873,0.1423291619138397,0.0005796421915550004,0.693376571656893,0.10276377769277012,0.10223799006043885,0,1,0
0.561122244488978,0.19782169357375526,-0.6031351567159234,0.9457093332812501,0.09798462986813852,0.014007797601688342,0.6714077705066668,0.10764846409146939,0.10700330734224094,0,1,0
0.5811623246492986,0.1857763805388366,-0.6022656517459327,0.9469265258693745,0.06085962940622428,0.026901919006172167,0.6447060702241911,0.11270595865592051,0.11194781102105929,0,1,0
0.6012024048096192,0.1737931561758545,-0.5991612181491055,0.9475500327313094,0.031175343096746473,0.03917260709000738,0.6135344041917608,0.11766307783145506,0.11680109907926116,0,1,0
0.6212424849699398,0.16191870377998466,-0.5937226197934928,0.9477250280313558,0.008749765002320994,0.050737924745063515,0.5782658827528067,0.12231202780554427,0.12135774163011534,0,1,0
0.6412825651302605,0.15020076557634005,-0.5858969101822308,0.9475869533708459,-0.0069037330254985395,0.061525261999330436,0.5393668627133464,0.1265036689695173,0.1254705296646528,0,1,0
0.6613226452905812,0.13868701544504167,-0.5756875065649194,0.9472572010770787,-0.01648761468836151,0.0714728513631134,0.49737946818914813,0.13013956198519397,0.12904242552304762,0,1,0
0.6813627254509018,0.1274238727191264,-0.5631571362957635,0.9468403325732458,-0.020843425191643745,0.08053085873088153,0.45290036838840636,0.13316483012302066,0.13201938846817443,0,1,0
0.7014028056112224,0.11645537149422472,-0.5484250612450837,0.9464226103550331,-0.020886110910637808,0.08866202206120634,0.40655816651624077,0.1355613996669855,0.13438361737742102,0,1,0
0.721442885771543,0.10582217072710451,-0.5316600383560103,0.9460716303662302,-0.017548999440140985,0.0958418411445794,0.3589909541686527,0.13734152586447132,0.13614711472554294,0,1,0
0.7414829659318637,0.09556076157520642,-0.5130704575949048,0.9458368494686973,-0.01173904487664847,0.10205835009819206,0.3108254476806329,0.13854155521396794,0.13734551455417404,0,1,0
0.7615230460921844,0.08570290137014655,-0.4928930102529935,0.9457508111172437,-0.004301917572682696,0.10731152600593866,0.26265879538733,0.13921596021893687,0.13803220181429435,0,1,0
0.781563126252505,0.07627527980889126,-0.4713810780627648,0.9458308832183927,0.004003605057452981,0.11161240188178004,0.2150437937920681,0.1394317324362255,0.13827280003653517,0,1,0
0.8016032064128256,0.06729940357704005,-0.44879381159256065,0.9460813362722239,0.012522652691561137,0.1149819598108729,0.1684778964546445,0.13926324749596425,0.13814013283864995,0,1,0
0.8216432865731462,0.05879167142613093,-0.4253866075454558,0.9464956074636152,0.020713559569560162,0.11744988131171306,0.12339607504200625,0.13878771580002108,0.13770976600443402,0,1,0
0.8416833667334669,0.05076360289597438,-0.40140342650782745,0.9470586168850639,0.02815047107243728,0.11905322763962986,0.08016731639584182,0.13808131693841735,0.13705622276800436,0,1,0
0.8617234468937875,0.04322218008338124,-0.3770711406296573,0.9477490247526659,0.034520393380098435,0.11983511417949859,0.039094326993438115,0.1372160759913451,0.1362499267926987,0,1,0
0.8817635270541082,0.03617026234144972,-0.3525958870965759,0.9485413420038992,0.03961586256166643,0.11984343163363118,0.00041587270662817727,0.13625752664036647,0.13535491590706938,0,1,0
0.9018036072144289,0.02960703763284836,-0.32816123543006787,0.9494078306670539,0.04332443315773742,0.11912965384442067,-0.03568888946052577,0.13526309682639123,0.13442726198772295,0,1,0
0.9218436873747494,0.02352848010539911,-0.30392787637246244,0.9503201517803698,0.04561605566579526,0.1177477997559789,-0.06909270442208568,0.1342811832018025,0.1335141419456318,0,1,0
0.9418837675350701,0.017927790433739092,-0.28003448358300087,0.9512507381747013,0.046529319716578206,0.11575349511254628,-0.09971523217163317,0.13335080115498335,0.13265350668866058,0,1,0
0.9619238476953907,0.0127958027938191,-0.2565993819959997,0.9521738861444644,0.0461573984881553,0.11320311053909704,-0.12751922867246,0.13250171967360916,0.13187424165835768,0,1,0
0.9819639278557114,0.008121348886645952,-0.23372269535865733,0.9530665736925676,0.04463437740516342,0.1101530456720747,-0.15250324335111978,0.13175499717338493,0.1311966840359134,0,1,0
1.002004008016032,0.0038915749064423076,-0.2114886990101822,0.9539090234449101,0.04212248761712471,0.10665914454030351,-0.17469505658855833,0.1311238077343656,0.13063342749467938,0,1,0
1.0220440881763526,9.221196518868118e-05,-0.1899681470626813,0.9546850361145923,0.03880063348410694,0.10277622502591402,-0.19414597571947526,0.1306144415036219,0.1301903002721473,0,1,0
1.0420841683366733,-0.0032921962562450047,-0.16922041107168428,0.9553821249038178,0.03485443946127266,0.09855770450235019,-0.21092602617819042,0.13022739343538645,0.12986743238696521,0,1,0
1.062124248496994,-0.006278102816725278,-0.14929532802401366,0.9559914833745665,0.03046792353743456,0.09405530435532397,-0.2251200073513128,0.1299584565913171,0.1296603293993481,0,1,0
1.0821643286573146,-0.0088827970126184,-0.13023470979465612,0.9565078191467127,0.025816788607306795,0.08931881765642773,-0.23682433494481295,0.12979977230793366,0.12956090574823226,0,1,0
1.1022044088176353,-0.011124267142840281,-0.11207350651109409,0.9569290843311123,0.021063259219983137,0.08439592641479284,-0.24614456208174346,0.12974079904756736,0.12955843979518983,0,1,0
1.122244488977956,-0.013021080073088904,-0.09484064651243111,0.9572561311227971,0.016352339584235268,0.07933205724624337,-0.25319345842747476,0.12976918060732073,0.129640431259102,0,1,0
1.1422845691382766,-0.014592271970005049,-0.07855959484580727,0.9574923179896352,0.011809343341906803,0.07417026672577164,-0.25808952602358504,0.12987150454826432,0.12979335169133335,0,1,0
1.1623246492985972,-0.01585724563064151,-0.0632486830318231,0.9576430886672479,0.007538533880638026,0.06895114994823308,-0.2609558388769276,0.13003394871709772,0.13000328551262122,0,1,0
1.1823647294589177,-0.016835670969190406,-0.0489212669274447,0.9577155428966533,0.0036227114702694282,0.06371276780171062,-0.2619191073261234,0.13024281807385532,0.13025646340018146,0,1,0
1.2024048096192383,-0.01754738634116044,-0.035585768598501606,0.9577180146299911,0.00012358666688675824,0.05849059009797426,-0.2611088851868175,0.13048497854143182,0.1305396942906461,0,1,0
1.222444889779559,-0.01801229940995508,-0.023245653439732013,0.957659670406038,-0.0029172111976528458,0.053317452984390334,-0.2586568556791965,0.13074819323988554,0.1308407009275168,0,1,0
1.2424849699398797,-0.018250287152260004,-0.011899387115246261,0.9575501377200849,-0.0054766342976582515,0.0482235299941398,-0.25469614951252767,0.13102137163786046,0.1311483690854303,0,1,0
1.2625250501002003,-0.01828109532895192,-0.001540408834595667,0.9573991706580819,-0.007548353100150986,0.04323631670414855,-0.24936066449956226,0.13129474010488648,0.13145291862798264,0,1,0
1.282565130260521,-0.018124238532440835,0.007842839825554173,0.9572163579954429,-0.009140633131951247,0.03838062932130881,-0.24278436914198612,0.1315599406736577,0.13174600326375766,0,1,0
1.3026052104208417,-0.01779890380590914,0.01626673632658473,0.9570108766475348,-0.010274067395405503,0.03367861791357815,-0.235100570386533,0.1318100735718854,0.13202075627257917,0,1,0
1.3226452905811623,-0.017323856467009666,0.023752366944973742,0.956791289257779,-0.010979369487790479,0.02914979676869338,-0.22644105724423896,0.13203970599644685,0.13227179712641687,0,1,0
1.342685370741483,-0.016717347800296503,0.030325433335658195,0.9565653876120728,-0.011295082285313743,0.02481109008934682,-0.2169353339673277,0.13224481045533243,0.132495165777491,0,1,0
1.3627254509018036,-0.01599702858041956,0.036015960993847226,0.9563400800619815,-0.01126537750456612,0.020676889722892042,-0.20671001832273886,0.13242267376497086,0.13268823225876128,0,1,0
1.3827655310621243,-0.015179870091752869,0.040857924433334525,0.9561213197134893,-0.010938017424604062,0.01675912536065375,-0.1958882181119146,0.13257178707049053,0.13284958709757058,0,1,0
1.4028056112224447,-0.01428209375908472,0.04488881663340745,0.9559140697442738,-0.010362498460773117,0.013067347481024102,-0.1845888939814825,0.13269171746158845,0.1329789125679166,0,1,0
1.4228456913827654,-0.013319110232158714,0.04814917634630025,0.9557223016826037,-0.009588403083503122,0.009608822711942185,-0.17292623845409577,0.13278296663611008,0.133076840352389,0,1,0
1.442885771543086,-0.012305468490021659,0.050682087106852805,0.9555490221048318,-0.00866397888859604,0.006388640785314913,-0.16100909633136368,0.13284682231135334,0.13314480146072893,0,1,0
1.4629258517034067,-0.011254815252151962,0.05253266189348482,0.955396323010717,-0.007634954705745525,0.003409831870562846,-0.14894044573760332,0.13288520761891323,0.1331848737782207,0,1,0
1.4829659318637274,-0.010179864716966656,0.05374752675926526,0.9552654511032591,-0.006543595372895021,0.0006734927988187322,-0.1368169535872057,0.13290053306746724,0.13319963195225118,0,1,0
1.503006012024048,-0.00909237840696301,0.054374315500182305,0.9551568913110584,-0.005427989610032545,-0.0018210794876425999,-0.12472861432306659,0.13289555507743875,0.13319200373013068,0,1,0
1.5230460921843687,-0.008003154692222923,0.054461185737004356,0.955070460126673,-0.004321559219270894,-0.0040762490164422665,-0.11275847643998338,0.13287324433492856,0.13316513608949165,0,1,0
1.5430861723446894,-0.006922027395564371,0.054056364832927604,0.9550054046690669,-0.0032527728803018146,-0.006095898168228932,-0.10098245758933337,0.13283666700880292,0.13312227428293077,0,1,0
1.56312625250501,-0.005857872755341525,0.05320773201114232,0.9549605038036318,-0.0022450432717507924,-0.007885283088118504,-0.08946924599447845,0.1327888783796125,0.1330666534088104,0,1,0
1.5831663326653307,-0.004818623934817492,0.05196244102620165,0.9549341680638672,-0.0013167869882322208,-0.009450888756575916,-0.07828028342287056,0.1327328340333431,0.13300140770346217,0,1,0
1.6032064128256511,-0.0038112922177306837,0.05036658585434041,0.9549245356790659,-0.00048161924006769714,-0.010800285222911661,-0.06746982331678726,0.1326713168844849,0.13292949585773436,0,1,0
1.6232464929859718,-0.002841994013836177,0.048464910194725326,0.9549295625170716,0.00025134190028919083,-0.01194198634671177,-0.05708505619000571,0.13260687852181974,0.13285364086628879,0,1,0
1.6432865731462925,-0.0019159828096153688,0.04630056021104041,0.9549471042063099,0.0008770844619121701,-0.012885312223460926,-0.047166293837457615,0.13254179921962897,0.13277628875747546,0,1,0
1.6633266533066131,-0.0010376852340823056,0.043914878776653156,0.9549749892798542,0.0013942536772153704,-0.013640256298166216,-0.03774720373526458,0.13247805494516746,0.13269957454027967,0,1,0
1.6833667334669338,-0.00021074045728668254,0.041347238839781156,0.9550110824118663,0.001804656600598989,-0.014217357994414924,-0.02885508481243523,0.13241730245911662,0.13262530644216514,0,1,0
1.7034068136272544,0.000561957798827506,0.03863491280570942,0.9550533373680047,0.002112747806920688,-0.014627581528733693,-0.02051117671593848,0.13236088243031538,0.13255496835899577,0,1,0
1.723446893787575,0.0012782172877282196,0.035812974445035686,0.9550998398357244,0.002325123385987149,-0.01488220142301878,-0.012730994714254346,0.13230982262304072,0.13248972255689306,0,1,0
1.7434869739478958,0.0019365018890550837,0.032914230066343204,0.9551488403088205,0.002450023654805556,-0.01499269508572482,-0.005524683135302046,0.13226485304746963,0.1324304244812763,0,1,0
1.7635270541082164,0.0025358853993356165,0.02996917551402664,0.9551987775577253,0.0024968624452384918,-0.014970642718911907,0.0011026183406457023,0.13222642677300755,0.13237764336650587,0,1,0
1.783567134268537,0.003076004915625151,0.02700597581447673,0.9552482933846845,0.0024757913479615846,-0.014827634738675075,0.007150399011841703,0.1321947493539513,0.13233169159273098,0,1,0
1.8036072144288577,0.003557014204664617,0.024050464451973314,0.9552962396158055,0.0023973115560437935,-0.014575188192967695,0.012622327285368891,0.13216980591464952,0.13229265259322556,0,1,0
1.8236472945891782,0.003979537399727603,0.02112615975314928,0.9553416782198673,0.002271930203090074,-0.014224668813933394,0.017525968951715175,0.13215139387691183,0.1322604127303547,0,1,0
1.8436873747494988,0.0043446233141277825,0.018254295720008987,0.9553838755791312,0.002109867963195722,-0.013787219687552837,0.02187245631902785,0.13213915637581403,0.13223469438543042,0,1,0
1.8637274549098195,0.004653700627619499,0.015453865674585836,0.9554222919579685,0.001920818941865086,-0.013273697774554729,0.025676095649905417,0.13213261453786795,0.13221508865787815,0,1,0
1.8837675350701402,0.004908534171038943,0.0127416771709722,0.9554565671844576,0.0017137613244585968,-0.012694617939959171,0.028953991729777865,0.13213119844197704,0.1322010867267663,0,1,0
1.9038076152304608,0.0051111825031704815,0.01013241660657689,0.9554865035125947,0.001496816406851999,-0.012060104164101753,0.03172568879287069,0.1321342762673678,0.13219210938827824,0,1,0
1.9238476953907815,0.005263956947233626,0.0076387222031572355,0.9555120465708744,0.0012771529139868833,-0.011379847616147843,0.034012827397695726,0.13214118083204549,0.13218753397886981,0,1,0
1.9438877755511021,0.0053693822317254555,0.005271264224591477,0.9555332652179581,0.0010609323541845765,-0.010663071274499062,0.035838817082438926,0.1321512332765496,0.13218671844297342,0,1,0
1.9639278557114228,0.005430158860506979,0.0030388314390761813,0.9555503310343874,0.0008532908214609669,-0.009918500778796637,0.03722852478512136,0.13216376357376083,0.1321890222288131,0,1,0
1.9839679358717435,0.00544912731926223,0.0009484229377625577,0.955563498078703,0.0006583522157832478,-0.009154341196445238,0.038207979117569985,0.13217812776298826,0.13219382391237686,0,1,0
2.004008016032064,0.005429234209207384,-0.0009946555027423084,0.9555730834330365,0.000479267716675851,-0.008378259383495576,0.03880409064748292,0.13219372193319728,0.13220053557528091,0,1,0
2.024048096192385,0.005373500417305215,-0.0027866895951084245,0.9555794489507237,0.0003182758843578408,-0.007597371616075705,0.03904438837099363,0.132209993175882,0.13220861411023388,0,1,0
2.0440881763527052,0.005284991459571844,-0.0044254478866685674,0.9555829845747192,0.00017678119978028478,-0.006818236202465591,0.03895677068050572,0.1322264471790904,0.13221756908502852,0,1,0
2.064128256513026,0.005166789768741239,-0.005910084541530269,0.9555840934234541,5.5442436740087456e-05,-0.006046850852345357,0.03856926750601177,0.13224265298846483,0.1322269682196669,0,1,0
2.0841683366733466,0.005021969088901244,-0.007241033991999745,0.9555831787703034,-4.5732657531751095e-05,-0.005288654223210382,0.03790983145674884,0.13225824581923018,0.13223644061622483,0,1,0
2.1042084168336674,0.004853571027895624,-0.00841990305028099,0.9555806330157255,-0.00012728772889395956,-0.004548531303240067,0.037006145998515684,0.13227292730431828,0.13224567737063134,0,1,0
