time,x,x_dot,z,z_dot,theta,theta_dot,u1,u2,x_ref,z_ref,theta_ref
0.0,-0.9919435130139129,0.07443538285410847,0.7427423876044142,0.03021225957233703,-0.0063630468120141614,0.057706698833507236,0.29608233356326624,0.2956558329253117,0,1,0
0.02004008016032064,-0.9905118732153824,0.07158198992652862,0.7481924244525437,0.27250184240647446,-0.005551089933876633,0.04059784390687646,0.19848352698267155,0.2499952100861041,0,1,0
0.04008016032064128,-0.9891239780379076,0.06939475887373506,0.756360867780693,0.4084221664074603,0.036469523906436645,2.101030692015663,0.056323375017779675,0.06428170150133652,0,1,0
0.06012024048096192,-0.9877475714673992,0.06882032852542283,0.7623867835182618,0.30129578687844144,0.08474693265602054,2.4138704374791953,0.05632337490500301,0.06906058144867881,0,1,0
0.08016032064128256,-0.9863048777436617,0.07213468618687463,0.7663426936009404,0.1977955041339305,0.14307038349247925,2.9161725418229354,0.05632337656620752,0.06145200358968443,0,1,0
0.1002004008016032,-0.984715889923784,0.07944939099388666,0.7681133311669384,0.08853187829989577,0.20530703590614152,3.1118326206831117,0.057565989204313744,0.056323376299568934,0,1,0
0.12024048096192384,-0.982887751706796,0.09140691084940306,0.7676323947456246,-0.024046821065688742,0.2663467972763256,3.051988068509205,0.1639711346229204,0.16062842063262814,0,1,0
0.1402805611222445,-0.9800808381834655,0.14034567616652424,0.7679397676892141,0.015368647179477245,0.3245195017879552,2.9086352255814756,0.23411666521493632,0.22450770421542315,0,1,0
0.16032064128256512,-0.9754881320190094,0.22963530822280193,0.7708817157763077,0.147097404354677,0.37483614006468163,2.515831913836325,0.2966828866341,0.2831561199161878,0,1,0
0.18036072144288576,-0.9681610850875813,0.36635234657140736,0.7780425018833966,0.35803930535444406,0.4142035368391015,1.968369838720994,0.2965426525454075,0.2793959511377152,0,1,0
0.2004008016032064,-0.9577190110286974,0.5221037029441947,0.7892146221651002,0.5586060140851772,0.43977071504993914,1.2783589105418809,0.24881709150747375,0.23228590438575938,0,1,0
0.22044088176352705,-0.9444231569533305,0.6647927037683488,0.80297570507074,0.6880541452819934,0.45207066480889596,0.6149974879478407,0.2090524192518601,0.1952633675928161,0,1,0
0.24048096192384769,-0.9285980395735237,0.7912558689903362,0.8182151702020192,0.7619732565639572,0.45332431617151575,0.06268256813098949,0.178382618571777,0.16707604225359682,0,1,0
0.2605210420841683,-0.910563838889848,0.9017100341837812,0.8341128356886761,0.7948832743328498,0.44553164780080934,-0.3896334185353126,0.15453814522763712,0.14543396124851116,0,1,0
0.280561122244489,-0.8906151156162125,0.9974361636817771,0.8500576622520359,0.7972413281679893,0.43046451655050616,-0.7533565625151661,0.1361683981920657,0.1290040431720919,0,1,0
0.3006012024048096,-0.8690097989719576,1.080265832212748,0.8655984339586786,0.7770385853321348,0.4096876862905005,-1.038841513000286,0.12210709617654825,0.11658240721150318,0,1,0
0.32064128256513025,-0.8459691599874584,1.152031949224964,0.880403774729168,0.740267038524467,0.3845259473063658,-1.2580869492067284,0.11118712106245718,0.10725404648098597,0,1,0
0.3406813627254509,-0.8216831556948198,1.2143002146319282,0.8942294094866823,0.6912817378757151,0.35626419855145497,-1.4130874377455462,0.10256767253683576,0.09987752044419172,0,1,0
0.3607214428857715,-0.7963186730620717,1.268224131637403,0.9068887055207695,0.6329648017043632,0.32590574599895933,-1.5179226276247797,0.09695542676081452,0.09506974379374789,0,1,0
0.3807615230460922,-0.7700110409369805,1.3153816062545594,0.9182697002207275,0.5690497349978983,0.29410059437080405,-1.590257581407764,0.09171502606942226,0.09048778255694856,0,1,0
0.4008016032064128,-0.7428903910562648,1.356032494035785,0.9282657538903037,0.49980268347881074,0.2613800512933884,-1.6360271538707816,0.0894896856566106,0.08859714924312893,0,1,0
0.42084168336673344,-0.7150579986381341,1.3916196209065301,0.9368472960540678,0.42907710818820133,0.22801486307348745,-1.6682594109950455,0.08611307333636513,0.08561212034480839,0,1,0
0.4408817635270541,-0.68662287220479,1.4217563216672042,0.9439496408961846,0.3551172421058381,0.19432035709154838,-1.6847252990969561,0.08539559923753859,0.0851528725211786,0,1,0
0.4609218436873747,-0.657672696467329,1.4475087868730507,0.9495792244507331,0.281479177727421,0.16050414834756785,-1.6908104371990227,0.0840089376907329,0.08406472474522178,0,1,0
0.48096192384769537,-0.6282990188423498,1.4686838812489564,0.9537207797325238,0.20707776408953793,0.1268053381361295,-1.6849405105719213,0.08375326043535669,0.08402885466852697,0,1,0
0.501002004008016,-0.5985864459044858,1.4856286468931998,0.956387819892696,0.1333520080086107,0.09339926157500583,-1.670303828056182,0.08429864886685629,0.08478352097346244,0,1,0
0.5210420841683366,-0.5686163116836176,1.4985067110434107,0.9576143528413545,0.06132664743293127,0.06045222977669211,-1.647351589915684,0.08393211429560381,0.08461127833962694,0,1,0
0.5410821643286573,-0.538473238649167,1.5071536517225297,0.9574044890965908,-0.010493187238185098,0.028118012245420012,-1.6167108765636051,0.08609244383098696,0.08691153909734173,0,1,0
0.561122244488978,-0.5082357791073526,1.5118729770907153,0.9558333864357211,-0.078555133043484,-0.0034935841516507186,-1.5805798198535366,0.08596752899019071,0.08696700443214052,0,1,0
0.5811623246492986,-0.477987102363301,1.5124338372025827,0.9529064238360012,-0.14634812998599658,-0.03424073867269996,-1.537357726052462,0.09126348800438577,0.09241649842808539,0,1,0
0.6012024048096192,-0.4478089014694612,1.5089100446919914,0.9487865291950558,-0.2059947320472695,-0.0640035076144347,-1.488138447086737,0.09995725858305346,0.10133639851942036,0,1,0
0.6212424849699398,-0.41779370031339086,1.5007600578035145,0.94373533009873,-0.25255995481628996,-0.0926042101297994,-1.4300351257682364,0.11099970086536878,0.11264563635853123,0,1,0
0.6412825651302605,-0.3880509703195596,1.4871364996915628,0.9380808020107474,-0.28272640439913005,-0.1198331021959944,-1.3614446033097483,0.12308757348390756,0.1250220361753705,0,1,0
0.6613226452905812,-0.3587079523190823,1.4671509000238647,0.9321775939170825,-0.2951604046832408,-0.14546355815252218,-1.2815227978263901,0.1351963717563846,0.13741720329428367,0,1,0
0.6813627254509018,-0.32990635411318564,1.440079910294834,0.9263759322933742,-0.29008308118541704,-0.16927115123586772,-1.1903796541672755,0.146481253698013,0.14896661905268344,0,1,0
0.7014028056112224,-0.3017960967576507,1.405512867776749,0.9209965093131492,-0.26897114901124797,-0.19104929735930387,-1.088907306171809,0.1563039462907076,0.15901562727394808,0,1,0
0.721442885771543,-0.2745274713648228,1.3634312696413946,0.9163121848651228,-0.23421622240132292,-0.21062221910050563,-0.9786460870600898,0.16421785949513826,0.16710563497084932,0,1,0
0.7414829659318637,-0.24824291010073873,1.3142280632042034,0.9125359808254764,-0.18881020198232273,-0.22785438066155678,-0.8616080780525578,0.16996061938796442,0.17296668920856292,0,1,0
0.7615230460921844,-0.22306944744948448,1.258673132562713,0.9098149415480612,-0.13605196387075763,-0.24265637979077323,-0.7400999564608214,0.17343896979588233,0.1765023359755949,0,1,0
0.781563126252505,-0.1991126934318402,1.1978377008822134,0.9082291532041197,-0.07928941719707483,-0.2549873488777513,-0.6165484543489008,0.17470955472968316,0.17777002498140718,0,1,0
0.8016032064128256,-0.1764528455502999,1.1329923940770148,0.9077950901750841,-0.021703151451780978,-0.2648541810153601,-0.493341606880443,0.17395461477498356,0.17695623032571117,0,1,0
0.8216432865731462,-0.15514294737563802,1.065494908733095,0.9084723555252842,0.03386326751000505,-0.27230804995909885,-0.3726934471869337,0.17145373284126736,0.17434745561161225,0,1,0
0.8416833667334669,-0.13520930588712168,0.9966820744258172,0.9101728472044162,0.08502458395659793,-0.2774388194950852,-0.25653847679931996,0.16755276491097848,0.17029832048852964,0,1,0
0.8617234468937875,-0.11665373772749095,0.9277784079815369,0.9127713908004311,0.12992717980075,-0.28036801587208865,-0.14645981885017062,0.16263174687776996,0.1651985750394323,0,1,0
0.8817635270541082,-0.09945715087478259,0.859829342635418,0.9161169320035641,0.16727706015665142,-0.28124107196460857,-0.04365280462599297,0.15707374810762229,0.15944108318673095,0,1,0
0.9018036072144289,-0.0835838919937876,0.7936629440497496,0.9200434684821899,0.19632682393128437,-0.2802195317816847,0.051077009146190455,0.15123980982656002,0.1533959956162762,0,1,0
0.9218436873747494,-0.06898632297051518,0.7298784511636207,0.9243801057165325,0.2168318617171304,-0.27747390284091905,0.13728144703828338,0.14544422900282497,0.14738553574941832,0,1,0
0.9418837675350701,-0.055609130250364985,0.66885963600751,0.928959637503691,0.22897658935792803,-0.27317773239890253,0.2148085221008251,0.13994551028296537,0.14167468506693828,0,1,0
0.9619238476953907,-0.04339307010688999,0.6108030071737499,0.9336254838363304,0.23329231663196914,-0.26750241011537434,0.2837661141764106,0.13493850927242412,0.1364629949653157,0,1,0
0.9819639278557114,-0.0322779451575954,0.5557562474647295,0.9382368237442386,0.2305669953954083,-0.26061334754753407,0.34445312839201475,0.1305563562561072,0.13188659360621396,0,1,0
1.002004008016032,-0.022204763891105265,0.5036590633245066,0.9426720167497626,0.22175965027620512,-0.25266752996951086,0.39729087890116066,0.1268760298511308,0.12802405002198441,0,1,0
1.0220440881763526,-0.013117126724203895,0.4543818583450685,0.9468304888949015,0.20792360725694217,-0.24381220734176376,0.44276613138735055,0.12392632430782313,0.12490467078799858,0,1,0
1.0420841683366733,-0.004961943362079373,0.40775916810622603,0.9506333106525401,0.19014108788193088,-0.23418445914459943,0.4813874098582155,0.12169825560148331,0.12251923161449764,0,1,0
1.062124248496994,0.0023103725998359264,0.363615798095765,0.9540227538966398,0.16947216220498507,-0.22391137051617283,0.5136544314213322,0.12015432354997252,0.12082952936121352,0,1,0
1.0821643286573146,0.008746088602354273,0.3217858001259174,0.9569610783282665,0.14691622158133083,-0.2131105856666288,0.5400392424772004,0.11923730403354124,0.11977740545924458,0,1,0
1.1022044088176353,0.014388582478078843,0.28212469378622845,0.9594287842005629,0.12338529361482174,-0.20189105178462866,0.5609766941000038,0.11887735493368762,0.11929202364888376,0,1,0
1.122244488977956,0.019278904324444526,0.24451609231828428,0.9614225221126297,0.09968689560334099,-0.19035381455372385,0.5768618615452414,0.1189978023736965,0.11929577251828175,0,1,0
1.1422845691382766,0.02345638184891135,0.2088738762233411,0.9629528160967538,0.07651469920620349,-0.17859277117501643,0.5880521689353702,0.11951962782231132,0.11970882281021071,0,1,0
1.1623246492985972,0.02695920305358708,0.17514106023378645,0.9640417224288493,0.05444531660477747,-0.16669532399383444,0.5948723590591019,0.12036021902386237,0.12044790885832994,0,1,0
1.1823647294589177,0.029824954908490308,0.14328759274516137,0.9647203829207459,0.033933024594827235,-0.15474290983737474,0.597620707822986,0.1214578454712426,0.12145083752941874,0,1,0
1.2024048096192383,0.03209097323028773,0.11330091608987095,0.9650271849629631,0.01534010211085923,-0.14281137797306684,0.5965765932153945,0.12273219217153437,0.1226369330445923,0,1,0
1.222444889779559,0.03379470801908329,0.08518673943977799,0.9650053765470111,-0.001090420797601948,-0.13097128766914182,0.5920045151962495,0.12412088715711432,0.12394366712131077,0,1,0
1.2424849699398797,0.03497390973679606,0.05896008588563861,0.9647012048613319,-0.015208584283960297,-0.11928804303778766,0.5841622315677089,0.1255676558286479,0.12531468239853663,0,1,0
1.2625250501002003,0.035666710293828244,0.03464002785160932,0.9641622344401259,-0.02694852106030131,-0.10782196986209075,0.5733036587848461,0.12702301280108963,0.12670049137925324,0,1,0
1.282565130260521,0.03591160707293014,0.01224483895509466,0.9634358688900337,-0.036318277504612154,-0.0966283285547654,0.5596820653662666,0.1284445143930706,0.1280586970212069,0,1,0
1.3026052104208417,0.03574736523769571,-0.008212091761721666,0.9625680867985273,-0.043389104575317985,-0.08575728862529813,0.5435519964733629,0.12979679041745787,0.12935399304988593,0,1,0
1.3226452905811623,0.03521285531448129,-0.026725496160720837,0.9616023906962211,-0.04828480511531012,-0.07525388967027385,0.5251699477512136,0.13105143949649267,0.13055803169603913,0,1,0
1.342685370741483,0.034346834669905804,-0.043301032228774336,0.9605789628485387,-0.05117139238411809,-0.06515801075690089,0.5047939456686503,0.1321867595346091,0.1316491438597511,0,1,0
1.3627254509018036,0.03318768745746124,-0.05795736062222798,0.959534026182127,-0.052246833320583955,-0.055504356238328875,0.4826827259285997,0.1331873022860398,0.13261188725158576,0,1,0
1.3827655310621243,0.031773144451441665,-0.0707271503009789,0.9584994003996758,-0.05173128912255663,-0.04632246294279637,0.4590946647766245,0.13404336706206063,0.13343652783997345,0,1,0
1.4028056112224447,0.03013999998008765,-0.08165722356770073,0.9575022375654442,-0.04985814171158543,-0.03763673836169619,0.43428622905500963,0.13475047736331117,0.1341185056646721,0,1,0
1.4228456913827654,0.028323839324103085,-0.09080803279922822,0.9565649201774713,-0.04686586939864377,-0.029466538320693302,0.40851000205014387,0.13530881451108184,0.13465786212582995,0,1,0
1.442885771543086,0.0263587872316939,-0.0982526046204593,0.955705103226325,-0.042990847557316914,-0.021826289053570685,0.38201246335613087,0.13572261233324176,0.13505863289149328,0,1,0
1.4629258517034067,0.024277285682966065,-0.10407507743639167,0.9549358804493902,-0.03846113884674253,-0.014725654972004305,0.3550317040783187,0.13599952350854175,0.1353282162998754,0,1,0
1.4829659318637274,0.022109906578507883,-0.10836895522290915,0.954266054127877,-0.033491316075656676,-0.008169750386039051,0.3277952292982627,0.13614997185711503,0.13547673069583013,0,1,0
1.503006012024048,0.019885202691088504,-0.11123519437096904,0.9537004874503126,-0.02827833387822596,-0.002159391073722819,0.30051796561581157,0.1361865062997408,0.13551637559058607,0,1,0
1.5230460921843687,0.017629598094984357,-0.1127802298052074,0.9532405187047318,-0.022998437279039663,0.003308620090400973,0.2734005582061896,0.13612317251445655,0.1354608119012883,0,1,0
1.5430861723446894,0.015367317450167322,-0.1131140322408517,0.9528844173436786,-0.017805068052664737,0.008241180310926669,0.24662801102628484,0.13597491762974429,0.13532457592032401,0,1,0
1.56312625250501,0.013120352019861935,-0.11234827151526934,0.9526278632415351,-0.01282770510717023,0.012648554238988346,0.22036869640308365,0.1357570423062347,0.1351225407744072,0,1,0
1.5831663326653307,0.010908459164694937,-0.11059464275834989,0.9524644321758242,-0.008171553285548843,0.016544028974798976,0.1947737367905316,0.13548470928241732,0.13486943395993836,0,1,0
1.6032064128256511,0.008749191283653871,-0.1079633940520533,0.9523860725333472,-0.003917982123852332,0.019943563818632735,0.16997674219168785,0.13517252091888887,0.13457942312417337,0,1,0
1.6232464929859718,0.00665794973937371,-0.10456207721400809,0.9523835605535544,-0.00012559898963540855,0.02286544126713523,0.1460938724251247,0.13483417015823423,0.13426577423236075,0,1,0
1.6432865731462925,0.004648059174143589,-0.10049452826150604,0.9524469238229007,0.0031681634673167295,0.025329924919367686,0.12322418261162267,0.13448216473435726,0.1339405818015683,0,1,0
1.6633266533066131,0.002730857739721123,-0.09586007172112329,0.9525658250838608,0.005945063048004382,0.027358929007069634,0.1014502043850978,0.13412763095755084,0.13361457747440797,0,1,0
1.6833667334669338,0.0009157990767443729,-0.0907529331488375,0.9527299009123081,0.008203791422367242,0.028975703275590608,0.08083871342604854,0.13378017894551636,0.1332969987984702,0,1,0
1.7034068136272544,-0.0007894376833925422,-0.08526183800684575,0.9529290517248099,0.009957540625086159,0.030204535953934776,0.061441633917208624,0.13344783444138036,0.13299552347442922,0,1,0
1.723446893787575,-0.0023788331000105007,-0.07946977083089792,0.9531536815991557,0.011231493717288524,0.03107047666460984,0.04329703553375292,0.13313704637202284,0.1327162783277252,0,1,0
1.7434869739478958,-0.0038479104248332224,-0.07345386624113609,0.9533948886513273,0.012060352608577478,0.03159908031936752,0.02643018273788404,0.13285272618384275,0.1324638791657704,0,1,0
1.7635270541082164,-0.0051936185286706035,-0.06728540519186907,0.9536446076437327,0.012485949620273919,0.03181617234334116,0.01085460119868251,0.13259833360388198,0.1322415164152568,0,1,0
1.783567134268537,-0.006414216346736343,-0.061029890903287,0.9538957078484347,0.012555010235097523,0.03174763506436812,-0.00342686394865218,0.13237599094880184,0.1320510687763952,0,1,0
1.8036072144288577,-0.0075091599909596,-0.054747182211162836,0.9541420499955232,0.01231710735442856,0.031419215065796535,-0.016420999928579018,0.13218663280473308,0.13189325168360713,0,1,0
1.8236472945891782,-0.008478993288526512,-0.04849166487834563,0.9543785071356102,0.011822857004349287,0.03085635723336247,-0.028142891621702998,0.13203015234576218,0.13176775848804553,0,1,0
1.8436873747494988,-0.00932524222095207,-0.042312446621277866,0.9546009540422308,0.011122345331027938,0.030084047306619805,-0.038615496337133404,0.1319055628907945,0.1316734257972659,0,1,0
1.8637274549098195,-0.010050313470594662,-0.03625356248212959,0.9548062303156101,0.010263813668963616,0.02912666946687069,-0.0478688919874561,0.1318111600400089,0.13160839582571646,0,1,0
1.8837675350701402,-0.010657397162328327,-0.030354184586683194,0.9549920822682936,0.009292597634175394,0.028007882895173794,-0.05593932858484464,0.13174467984936533,0.13157027222634843,0,1,0
1.9038076152304608,-0.011150373796372364,-0.024648831702201838,0.9551570884737388,0.008250310272264543,0.026750515408956586,-0.0628683743108602,0.1317034485406392,0.13155626783982358,0,1,0
1.9238476953907815,-0.011533725303888904,-0.01916757537582701,0.955300573572007,0.007174254913411102,0.02537647258804727,-0.06870214104546636,0.13168452063542774,0.13156334118784907,0,1,0
1.9438877755511021,-0.011812450132892335,-0.013936241450171546,0.9554225145501266,0.006097048905976607,0.02390666105456686,-0.07349057667401991,0.13168480302585853,0.13158831916974892,0,1,0
1.9639278557114228,-0.011991982276937107,-0.008976607202238623,0.9555234432672202,0.005046435854677218,0.022360924782610512,-0.07728681359781793,0.13170116382807923,0.1316280047594774,0,1,0
1.9839679358717435,-0.012078114182348113,-0.004306595270550336,0.9556043485152932,0.004045262403649215,0.020757993486704956,-0.0801465647952776,0.13173052520805542,0.13167926884753628,0,1,0
2.004008016032064,-0.012076923504692381,5.953388278659346e-05,0.9556665804035269,0.0031115944116876016,0.01911544227561842,-0.08212756055432655,0.13176994022331578,0.13173912623278314,0,1,0
2.024048096192385,-0.011994703757840041,0.004110987342616998,0.9557117593323197,0.0022589464396379497,0.01744966186527628,-0.08328902051710717,0.13181665435714782,0.13180479645380366,0,1,0
2.0440881763527052,-0.011837899225079012,0.007840226638051511,0.9557416914094821,0.0014966038581174217,0.015775838762691223,-0.08369115512925267,0.13186815198391635,0.13187375005651236,0,1,0
2.064128256513026,-0.011613043752628394,0.011242773622530922,0.9557582919362421,0.0008300263380025285,0.014107945237710135,-0.08339467624905457,0.13192218592443491,0.13194373716740174,0,1,0
2.0841683366733466,-0.011326703028117611,0.014317036225539106,0.9557635173837022,0.0002612723730088456,0.012458738272661491,-0.08246034825243222,0.13197679950893962,0.13201280801356793,0,1,0
2.1042084168336674,-0.01098542091737517,0.01706410553712205,0.9557593065389264,-0.0002105422387954122,0.010839766233024536,-0.08094860198184772,0.13203033611665632,0.13207932195792857,0,1,0
2.124248496993988,-0.010595670002997522,0.019487545718882372,0.9557475311316935,-0.0005887703616439155,0.009261382835466278,-0.07891916987791282,0.1320814382162953,0.13214194607549734,0,1,0
