time,x,x_dot,z,z_dot,theta,theta_dot,u1,u2,x_ref,z_ref,theta_ref
0.0,0.8063436218297209,-0.08646434752767339,1.172730814100364,-0.005491058804152682,0.0709711107755254,-0.09206838897907708,0.05632337503573696,0.056323377199100924,0,1,0
0.02004008016032064,0.8047326749602317,-0.08054734347445922,1.1703656325787553,-0.11825907608044249,0.06912974431291051,-0.09206832313074677,0.0876914682390148,0.056323374915020825,0,1,0
0.04008016032064128,0.8032730216511199,-0.07298266545559248,1.1662086333078743,-0.2078499635440518,0.04219394624442992,-1.3467899034240294,0.0667808628009717,0.05632337490505358,0,1,0
0.06012024048096192,0.8019393444591327,-0.06668385959935726,1.1599510444478216,-0.312879443002639,0.006895193112475378,-1.764937656597727,0.06627601865550417,0.05632337490972126,0,1,0
0.08016032064128256,0.8006822808591341,-0.06285317999993502,1.1515881263546432,-0.41814590465891394,-0.03636071461142752,-2.1627953861951443,0.06066831618486003,0.05632337521436014,0,1,0
0.1002004008016032,0.7994371679838022,-0.06225564376659474,1.1410383773079913,-0.5274874523326009,-0.08308932346651274,-2.336430442754261,0.05836556582584686,0.05632337495290806,0,1,0
0.12024048096192384,0.7981302883969319,-0.06534397934351407,1.1282666006245505,-0.6385888341720362,-0.1314499011641521,-2.4180288848819673,0.05638953926486863,0.056323374906661436,0,1,0
0.1402805611222445,0.7966848241056985,-0.07227321456167031,1.1132388841320435,-0.7513858246253456,-0.17986334794740175,-2.420672339162482,0.05632337502593588,0.05788214806940302,0,1,0
0.16032064128256512,0.7950175952366664,-0.08336144345160726,1.0959685048330359,-0.863518964950381,-0.22703123785097926,-2.358394495178877,0.10163515724706965,0.10652219510880165,0,1,0
0.18036072144288576,0.7927986873144691,-0.11094539610986173,1.0778121905537326,-0.9078157139651705,-0.2702938457508711,-2.163130394994591,0.18170228076577655,0.18935736934972353,0,1,0
0.2004008016032064,0.7893424414686506,-0.1728122922909241,1.061091992669167,-0.8360098942282702,-0.30743811295832735,-1.857213360372809,0.28670902658885045,0.29668282382501504,0,1,0
0.22044088176352705,0.7835784303449808,-0.28820055618349183,1.0487808368187468,-0.6155577925210174,-0.3366088460696226,-1.458536655564766,0.28363265137095517,0.29668288667128434,0,1,0
0.24048096192384769,0.7752127325501447,-0.41828488974180617,1.0407438392712578,-0.40184987737444916,-0.3553438325690896,-0.9367493249733426,0.2839485919433754,0.296682886641924,0,1,0
0.2605210420841683,0.7640059132807712,-0.5603409634686729,1.0369060495208593,-0.19188948751993026,-0.36389317115096725,-0.42746692909388617,0.23866685960368533,0.2505174361141832,0,1,0
0.280561122244489,0.7502777096002706,-0.6864101840250265,1.035942681197507,-0.04816841616761955,-0.36296239499143296,0.046538807976713115,0.20122490290644793,0.2108263979665812,0,1,0
0.3006012024048096,0.7343768347337531,-0.795043743325873,1.0367640457500389,0.04106822762659541,-0.35435042611107176,0.43059844401805575,0.17262084744910453,0.18027812698386697,0,1,0
0.32064128256513025,0.7166197364637097,-0.8878549135021719,1.0385529259155162,0.08944400827386663,-0.3396128607654388,0.7368782672816517,0.1510533019338576,0.1570569174556007,0,1,0
0.3406813627254509,0.6972788091535242,-0.9670463655092739,1.0407028130629747,0.10749435737292652,-0.320072924577079,0.9769968094179953,0.13381542845349476,0.13839863728145496,0,1,0
0.3607214428857715,0.6765944667550233,-1.034217119925047,1.0427351625173051,0.10161747271651644,-0.2968671212684266,1.1602901654326148,0.12133601640393404,0.1246370404152054,0,1,0
0.3807615230460922,0.6547635773169004,-1.0915444719061473,1.0443064852201414,0.07856613514181164,-0.27102120977171024,1.2922955748358245,0.11115045787755898,0.11348255182374571,0,1,0
0.4008016032064128,0.6319591922839359,-1.1402192516482201,1.0451401342799558,0.041682452990717336,-0.24331024622925138,1.3855481771229412,0.10386358285221882,0.10558831053924655,0,1,0
0.42084168336673344,0.6083240884303017,-1.1817551926817094,1.0450435089909007,-0.004831264452757195,-0.21422003026890263,1.4545107980174363,0.09857365902828727,0.09977002406509472,0,1,0
0.4408817635270541,0.5839810689790886,-1.2171509725606533,1.0438787596815595,-0.05823746546705628,-0.18417312721564813,1.502345152662726,0.09426835757650064,0.09501831972957799,0,1,0
0.4609218436873747,0.559041907678643,-1.2469580650222782,1.0415341593703449,-0.11723001556072848,-0.15352652525080382,1.5323300982422141,0.09264541359745494,0.09303553964028904,0,1,0
0.48096192384769537,0.5335989768762862,-1.2721465401178436,1.0379738660181839,-0.17801466760805143,-0.12256796900499092,1.5479278122906481,0.0896907265925243,0.08974323950569672,0,1,0
0.501002004008016,0.5077495307886565,-1.2924723043814887,1.0331205867671251,-0.24266396255293066,-0.091567422559059,1.5500273222965957,0.08974004806708054,0.08955385004744433,0,1,0
0.5210420841683366,0.4815753334841306,-1.3087098652262938,1.0269835864124766,-0.30685001773242715,-0.06071576295752609,1.5425829800766453,0.08919611291804837,0.08875457670887667,0,1,0
0.5410821643286573,0.45516007358556976,-1.3207629949280417,1.019551848112595,-0.3715869149940867,-0.030217164230600783,1.5249299363462647,0.09391462178986766,0.09324951516726103,0,1,0
0.561122244488978,0.4285765643132879,-1.3291754636140922,1.0109678025774973,-0.42920227675487954,-0.00025040335750793174,1.4983380436546427,0.1021746597890361,0.10124417309413522,0,1,0
0.5811623246492986,0.40190200607929266,-1.3337279116997625,1.001475993656015,-0.4745904460741201,0.028972302367988787,1.4611352862748361,0.11286156908919383,0.11164160210561655,0,1,0
0.6012024048096192,0.37522661501052335,-1.3337695534384668,0.99139015753685,-0.5042918059582466,0.05721945120135743,1.4123574416684321,0.1247884002151093,0.12326636199494227,0,1,0
0.6212424849699398,0.34865767893733624,-1.3284468036593566,0.9810576645527198,-0.5166246492065114,0.0842494552008745,1.3515001999758531,0.13699388310509708,0.13517293223090174,0,1,0
0.6412825651302605,0.32231933159353954,-1.316917367189835,0.9708306736557268,-0.5113495448496473,0.10982323063869896,1.278688771891225,0.14867905216988697,0.14657663955912673,0,1,0
0.6613226452905812,0.2963490689083548,-1.2985131342592378,0.9610423265107816,-0.48941735724726504,0.1337156259642078,1.194619766275442,0.15921593742717094,0.1568623943969055,0,1,0
0.6813627254509018,0.2708920359473649,-1.272851648049494,0.9519884106855276,-0.45269579126269893,0.15572572424471187,1.1005049140252026,0.16813691383668325,0.16557298212117466,0,1,0
0.7014028056112224,0.24609410481146798,-1.239896556794845,0.9439142132885774,-0.40370986984751145,0.17568517396572367,0.9979724860505905,0.17512923625334864,0.17240319922576092,0,1,0
0.721442885771543,0.22209471096172734,-1.1999696924870327,0.9370063422105855,-0.3453935538995905,0.19346422844929648,0.8889527241786432,0.1800252546670926,0.1771898261192339,0,1,0
0.7414829659318637,0.1990202808755996,-1.1537215043063878,0.9313890855597956,-0.2808628325394947,0.20897529859080233,0.7755535070752907,0.1827896823184778,0.17989895172763604,0,1,0
0.7615230460921844,0.176978893558649,-1.1020693658475293,0.9271247525955766,-0.21321664821095082,0.22217406245021845,0.6599381929708036,0.18350316152293028,0.1806097979972623,0,1,0
0.781563126252505,0.15605658773868683,-1.0461152909981082,0.9242173281016948,-0.1453712246940883,0.2330583371042703,0.5442137327025935,0.18234290863686664,0.17949577733837868,0,1,0
0.8016032064128256,0.1363154883221101,-0.9870549708288364,0.9226187175906458,-0.07993052555244429,0.2416650416351364,0.4303352265433049,0.1795611638917326,0.1768034456137321,0,1,0
0.8216432865731462,0.11779370627001554,-0.926089102604728,0.9222368500937363,-0.019093374845472112,0.24806565325469057,0.32003058097770937,0.17546229212336795,0.17283015533153342,0,1,0
0.8416833667334669,0.1005067866506053,-0.8643459809705113,0.9229449287127682,0.03540393095159521,0.252360598573802,0.21474726595557136,0.1703794103015521,0.16790125637656747,0,1,0
0.8617234468937875,0.08445035310840374,-0.8028216771100785,0.9245911646054692,0.08231179463504815,0.2546730390382589,0.11562202322284584,0.16465160739373932,0.16234788449794949,0,1,0
0.8817635270541082,0.0696035293506032,-0.742341187890027,0.9270083932727797,0.12086143336552897,0.2551425061136353,0.02347335376882141,0.1586026368756579,0.1564861827309452,0,1,0
0.9018036072144289,0.05593270579208272,-0.6835411779260241,0.9300230420301502,0.15073243786852403,0.2539188100598276,-0.061184802690388604,0.15252698655773902,0.15060382130469624,0,1,0
0.9218436873747494,0.04339529193482139,-0.6268706928630665,0.9334631375591799,0.17200477645148632,0.25115658295550913,-0.13811135521592083,0.14666993229664124,0.1449403350971952,0,1,0
0.9418837675350701,0.03194309611241017,-0.5726097911205611,0.9371648614870973,0.1850861963958733,0.24701068337029097,-0.20729497926090584,0.141228594601172,0.13968841573724466,0,1,0
0.9619238476953907,0.021525192695597738,-0.5208951708406214,0.9409777471374386,0.19064428251706436,0.2416326512832514,-0.26890160435198146,0.13634548712328604,0.13498739992053133,0,1,0
0.9819639278557114,0.012090143308263203,-0.4717524693667267,0.9447683705518924,0.1895311707226901,0.235168165146077,-0.3232243068587164,0.13211233188027327,0.1309270154932176,0,1,0
1.002004008016032,0.003587570999219648,-0.4251286154521777,0.9484226633700392,0.18271464090733686,0.22775544571273926,-0.3706359716668888,0.1285755055696117,0.12755262750363477,0,1,0
1.0220440881763526,-0.004030860179416914,-0.3809215589318281,0.9518470043383812,0.1712170484171019,0.21952444630872608,-0.41154997020066,0.12574353782491413,0.1248725091287278,0,1,0
1.0420841683366733,-0.0108109658147797,-0.3390052817681394,0.9549682942015115,0.1560644931565155,0.2105966475522821,-0.4463899378221971,0.12359509250348856,0.12286559358229426,0,1,0
1.062124248496994,-0.016795950913717557,-0.29924925494689286,0.9577332271073007,0.1382466452894579,0.20108527291678518,-0.475568731774845,0.1220867970776775,0.12148909861499786,0,1,0
1.0821643286573146,-0.022026596249805172,-0.26153226680438085,0.9601069662117179,0.11868695522085915,0.19109576113959634,-0.4994755888594443,0.12116015602082944,0.12068527246003728,0,1,0
1.1022044088176353,-0.02654161969717469,-0.22575117236847575,0.962071406612164,0.0982220200223044,0.18072636146913393,-0.5184699835231208,0.12074732703131327,0.12038704462872137,0,1,0
1.122244488977956,-0.030378127376967344,-0.19182538398963278,0.9636231793190505,0.07758863534432642,0.170068751372126,-0.5328805048503981,0.12077579561773809,0.12052261467143412,0,1,0
1.1422845691382766,-0.033572087231498626,-0.15969799272656413,0.9647715220693397,0.05741713751446177,0.1592086080209539,-0.5430071675586032,0.12117198501785043,0.12101901035273374,0,1,0
1.1623246492985972,-0.03615877519923657,-0.1293343983868972,0.965536115754543,0.03822968426016558,0.14822609215451638,-0.5491257933218741,0.12186034670087345,0.1218011563008389,0,1,0
1.1823647294589177,-0.03817317675558258,-0.10072007781730044,0.9659448565501207,0.02043703977888704,0.13719622682373808,-0.5514932665389162,0.12278258039478195,0.12281107168545845,0,1,0
1.2024048096192383,-0.03965024156100541,-0.07385324027114173,0.9660321250833016,0.004363426659041825,0.1261891531390385,-0.5503536842349797,0.12386700778034004,0.12397730920443512,0,1,0
1.222444889779559,-0.04062513255085973,-0.048744549492715616,0.9658366589629871,-0.009773306015728312,0.11527031524821171,-0.5459418945413393,0.12505677088764208,0.12524308680168977,0,1,0
1.2424849699398797,-0.04113333660104923,-0.02541020250947502,0.965399854332011,-0.02184023154880536,0.10450052120360194,-0.5384897022304873,0.12630084843375383,0.12655739889750736,0,1,0
1.2625250501002003,-0.041210688126538095,-0.0038675762744430353,0.964764238023868,-0.03178081540715178,0.09393595562735242,-0.5282282788124774,0.1275545688970759,0.12787553058239196,0,1,0
1.282565130260521,-0.04089331338600077,0.015868737026866454,0.9639721279979001,-0.039605501298396496,0.08362814507046966,-0.5153905278441387,0.12877977761979284,0.12915925125123856,0,1,0
1.3026052104208417,-0.04021750707286,0.033790315657038286,0.9630644897219436,-0.045381913797827064,0.07362389729111142,-0.5002123889679129,0.12994481635935692,0.1303768181460256,0,1,0
1.3226452905811623,-0.03921955485331279,0.049897610977360576,0.9620799901651563,-0.049224977839364144,0.06396523364647737,-0.4829331822317014,0.13102435243420554,0.13150282620494474,0,1,0
1.342685370741483,-0.037935516450754325,0.0642019201279232,0.9610542459942092,-0.0512872085473575,0.05468933116388777,-0.46379512412947993,0.13199909818958386,0.1325179443250056,0,1,0
1.3627254509018036,-0.03640098384544069,0.07672663026568201,0.9600192586306487,-0.05174936817802478,0.04582848773266378,-0.44304217156119946,0.13285543950232137,0.13340855655021844,0,1,0
1.3827655310621243,-0.03465082839461028,0.08750777254152041,0.9590030254558434,-0.050811658740268946,0.03741012056877748,-0.4209183581943152,0.1335849906021621,0.13416632547420795,0,1,0
1.4028056112224447,-0.03271894934200047,0.0965939526304905,0.9580293136572546,-0.04868558992943554,0.02945680482319869,-0.3976657872789397,0.13418409498624373,0.13478769785936537,0,1,0
1.4228456913827654,-0.030638034432921783,0.1040457454539342,0.9571175811102347,-0.04558662735099713,0.021986356103781895,-0.3735224359708396,0.13465327932817128,0.13527335977670904,0,1,0
1.442885771543086,-0.028439341353509395,0.10993465397061936,0.9562830269254075,-0.041727709241363285,0.015011957901177975,-0.34871991013019604,0.13499667538856686,0.13562765672804475,0,1,0
1.4629258517034067,-0.026152506591535993,0.11434173809867008,0.9555367531090259,-0.037313690819080605,0.008542332493270225,-0.32348127039538743,0.13522142354446973,0.1358579929218007,0,1,0
1.4829659318637274,-0.023805386200785497,0.11735601953752482,0.9548860181365413,-0.03253674862422633,0.0025819519295517948,-0.2980190281859215,0.13533707206706228,0.1359742244078874,0,1,0
1.503006012024048,-0.021423930949043078,0.11907276258712095,0.9543345631277094,-0.027572750441597856,-0.002868715815704121,-0.27253338726279575,0.13535498634409487,0.13598806084352003,0,1,0
1.5230460921843687,-0.019032096528028945,0.11959172105070652,0.9538829917149839,-0.022578570636269675,-0.007812931484802665,-0.24721078345492734,0.13528778175737563,0.13591249014882772,0,1,0
1.5430861723446894,-0.01665178796541704,0.11901542813059539,0.9535291855760589,-0.017690306946252378,-0.012257386549192818,-0.22222275321950766,0.13514879309397462,0.13576123942987006,0,1,0
1.56312625250501,-0.014302836143385244,0.11744759110158971,0.9532687389057941,-0.013022333513240534,-0.016211889383963903,-0.19772514173855404,0.1349515907149775,0.13554828282667958,0,1,0
1.5831663326653307,-0.012003003410050056,0.11499163666675936,0.9530953967298821,-0.00866710879559994,-0.01968904226181907,-0.17385764389275873,0.1347095516889966,0.13528740484543778,0,1,0
1.6032064128256511,-0.009768014662755183,0.11174943736474367,0.9530014838323143,-0.004695644878386468,-0.02270391540915325,-0.15074365736670894,0.1344354966568642,0.134991830206876,0,1,0
1.6232464929859718,-0.007611609964234342,0.10782023492604206,0.952978313240962,-0.0011585295676140805,-0.025273723739185096,-0.12849041650159254,0.13414138956532828,0.13467391754604022,0,1,0
1.6432865731462925,-0.005545614683142716,0.10329976405458129,0.9530165652758809,0.001912601745939105,-0.02741751109135444,-0.1071893676084669,0.13383810670200252,0.13434492347342616,0,1,0
1.6633266533066131,-0.0035800232872929293,0.09827956979248932,0.9531066303817534,0.004503255293627675,-0.02915584595808085,-0.08691674333632064,0.13353527334513268,0.1340148353523171,0,1,0
1.6833667334669338,-0.0017230932108466043,0.09284650382231625,0.953238911096876,0.006614035756132071,-0.03051053179871734,-0.06773429203182461,0.13324114227103873,0.13369224700151958,0,1,0
1.7034068136272544,1.8554403397600967e-05,0.08708238071221026,0.9534040798440476,0.00825843735858273,-0.0315043341861113,-0.04969011936969779,0.13296256536089307,0.13338432841870201,0,1,0
1.723446893787575,0.0016398298008679852,0.08106376987351921,0.9535932920464275,0.009460610118992184,-0.03216072629387864,-0.03281960538836666,0.13270498851051912,0.13309681974190782,0,1,0
1.7434869739478958,0.0031370678080141555,0.07486190035730851,0.9537983547961917,0.010253137488208925,-0.03250365348406326,-0.01714635950923138,0.1324724964454142,0.13283407576341394,0,1,0
1.7635270541082164,0.004507920907622547,0.06854265498041957,0.9540118527919846,0.010674899789646008,-0.03255731723685663,-0.002683187639668131,0.13226789015738358,0.13259914364407202,0,1,0
1.783567134268537,0.005751253556017838,0.062166632419764556,0.954227234221338,0.01076907146766928,-0.03234597820068084,0.010566951808788982,0.1320927985396266,0.13239387523878166,0,1,0
1.8036072144288577,0.006867038717279825,0.05578925806309934,0.9544388602582817,0.010581301847184536,-0.03189377781055995,0.02261001950604405,0.13194780065737446,0.13221905035054626,0,1,0
1.8236472945891782,0.007856257281856427,0.04946092822883009,0.9546420221344417,0.010158093808001839,-0.031224577688088225,0.0334600061235867,0.1318325611462147,0.13207451326827074,0,1,0
1.8436873747494988,0.008720800784399251,0.043227175127141214,0.9548329300984577,0.009545398200801703,-0.03036181591131288,0.04313808883876683,0.1317459755128621,0.13195931928396593,0,1,0
1.8637274549098195,0.009463377642117583,0.03712884288591657,0.9550086788373611,0.008787436945167426,-0.02932837918117614,0.051671836506837446,0.13168631450776608,0.13187188028692706,0,1,0
1.8837675350701402,0.010087423003455949,0.031202268066918303,0.9551671938710945,0.007925751686669204,-0.028146489906983645,0.05909446370962441,0.13165136401926278,0.13181010582773253,0,1,0
1.9038076152304608,0.010597012213463755,0.025479460500390284,0.9553071632644294,0.006998469666746894,-0.02683760727471157,0.06544413161360405,0.13163855799868696,0.13177153713131504,0,1,0
1.9238476953907815,0.010996777857728323,0.019988282213228438,0.9554279587614808,0.0060397748525684684,-0.025422341427463552,0.07076329236240092,0.13164510094860082,0.13175347057646947,0,1,0
1.9438877755511021,0.011291830333572195,0.014752623792193562,0.9555295501083738,0.0050795673446522,-0.023920379964745362,0.07509807313591008,0.13166807847033277,0.13175306913529514,0,1,0
1.9639278557114228,0.011487681905312845,0.009792578587032526,0.9556124159478061,0.004143291971615661,-0.02235042604674904,0.07849769589981578,0.13170455444121407,0.13176746035057377,0,1,0
1.9839679358717435,0.011590174222192582,0.005124615843986816,0.9556774542475956,0.0032519149894747338,-0.020730147463284023,0.08101392917325098,0.1317516542048357,0.13179382024839614,0,1,0
2.004008016032064,0.01160540930594275,0.0007617541875084843,0.9557258947879296,0.002422027016694065,-0.019076136089250125,0.08270056870169483,0.13180663361620942,0.1318294430457012,0,1,0
2.024048096192385,0.011539684044237298,-0.0032862630852726364,0.9557592157925111,0.0016660502290741777,-0.01740387719658316,0.08361294463334794,0.1318669342255299,0.13187179695554235,0,1,0
2.0440881763527052,0.011399428252202179,-0.007012789601755907,0.9557790663602066,0.0009925283847765317,-0.015727728125345574,0.08380745356187956,0.13193022520867953,0.13191856671674784,0,1,0
2.064128256513026,0.01119114638370102,-0.010414093425057927,0.9557871959457073,0.0004064792750312411,-0.01406090583455167,0.0833411145396953,0.13199443282050885,0.1319676836404972,0,1,0
2.0841683366733466,0.01092136298555982,-0.013489169907060004,0.9557853917550658,-9.020953207273185e-05,-0.01241548285804016,0.08227114882557551,0.13205775884073934,0.1320173446573293,0,1,0
2.1042084168336674,0.010596571990213776,-0.016239549767302148,0.9557754245852573,-0.000498358490426022,-0.010802391184489462,0.08065458367753463,0.13211868836513843,0.13206602072700158,0,1,0
2.124248496993988,0.010223189936160617,-0.018669102702657994,0.9557590033129516,-0.0008210636152849735,-0.009231433566630491,0.07854788089294866,0.1321759891251212,0.13211245680128808,0,1,0
