time,x,x_dot,z,z_dot,theta,theta_dot,u1,u2,x_ref,z_ref,theta_ref
0.0,0.48360398928512116,0.05073376342392158,0.9651805382294835,-0.07925499407042161,0.1867407399302935,-0.035849935824143794,0.1386708013530931,0.13751027330563373,0,1,0
0.02004008016032064,0.4853774065002549,0.08867086075668695,0.963697263457164,-0.07416373861597304,0.18509591293828945,-0.08224134960020071,0.09386555510113677,0.056323374974165036,0,1,0
0.04008016032064128,0.48756233238558677,0.10924629426659466,0.9604816506939295,-0.16078063816172422,0.15341880701495964,-1.583855296166495,0.06617308576094758,0.05632337490767498,0,1,0
0.06012024048096192,0.4900791608967713,0.1258414255592264,0.9551328741854114,-0.26743882542590985,0.11393136527297416,-1.9743720870992725,0.06384676422758037,0.05632337505544713,0,1,0
0.08016032064128256,0.49286544188139547,0.13931404923120824,0.9476290291287005,-0.3751922528355447,0.0685238646168176,-2.270375032807829,0.060594367030017804,0.056323375020197367,0,1,0
0.1002004008016032,0.49584551727808207,0.14900376983432875,0.9379344748378778,-0.48472771454113484,0.019821892258612396,-2.43509861791026,0.05781053370096386,0.05632338778011809,0,1,0
0.12024048096192384,0.498937774120953,0.15461284214354837,0.9260185138740294,-0.595798048192419,-0.029934549321847075,-2.4878220790229735,0.056323374907930185,0.05639223393205924,0,1,0
0.1402805611222445,0.5020591320853873,0.15606789822171657,0.9118674862506869,-0.7075513811671238,-0.07949713908476681,-2.4781294881459854,0.05800919550797539,0.060962279905798125,0,1,0
0.16032064128256512,0.5051234307038984,0.15321493092555571,0.8955777328049874,-0.8144876722849724,-0.1265622542966372,-2.353255760593522,0.184976052029944,0.1888615069307511,0,1,0
0.18036072144288576,0.5077434280739345,0.13099986850180192,0.8809126544229166,-0.7332539191035415,-0.17039619056768646,-2.191696813552459,0.21855257067041534,0.22629753340246392,0,1,0
0.2004008016032064,0.5095279008534054,0.08922363897354682,0.8688857069210895,-0.6013473750913558,-0.20792818450661188,-1.876599696946272,0.28758654955326624,0.29668283975838994,0,1,0
0.22044088176352705,0.5098422825543025,0.015719085044857445,0.8614847161714527,-0.37004953748183755,-0.23810189946157628,-1.5086857477482232,0.28593235346315005,0.29668288667311754,0,1,0
0.24048096192384769,0.5083745254963009,-0.07338785290008079,0.8586172631629566,-0.14337265042480393,-0.2596185456003559,-1.0758323069389781,0.2864832931166578,0.29668288662946524,0,1,0
0.2605210420841683,0.5048704324814193,-0.17520465074407954,0.860228229893331,0.08054833651871943,-0.2729416737237172,-0.666156406168062,0.25778968138894576,0.2675728519954722,0,1,0
0.280561122244489,0.4993716564336167,-0.27493880239012825,0.8654399788819223,0.2605874494295608,-0.27842120124734776,-0.2739763761815327,0.216806922559095,0.225056599785086,0,1,0
0.3006012024048096,0.49211433680124395,-0.3628659816186386,0.8730297814092587,0.3794901263668225,-0.277295501438524,0.0562849904411899,0.1855751826929319,0.1922379960787081,0,1,0
0.32064128256513025,0.483327539349396,-0.43933987259239726,0.8820720099771221,0.45211142839317175,-0.27084050554615413,0.3227497946184947,0.16133731822571146,0.1666476733453115,0,1,0
0.3406813627254509,0.473222014881096,-0.5052762234149996,0.8918558628980596,0.48919264604687485,-0.260144144739804,0.5348180403175016,0.14351230911625057,0.1476977562817297,0,1,0
0.3607214428857715,0.4619760272042337,-0.5622993838431154,0.9018633381276345,0.5003737614787473,-0.2461127513193536,0.7015696710225242,0.12913992483738118,0.13235925429588036,0,1,0
0.3807615230460922,0.4497493225631354,-0.6113352320549147,0.9116804922991133,0.49085770857394034,-0.22952524817094158,0.8293751574205995,0.11909857336004165,0.12145199735057577,0,1,0
0.4008016032064128,0.436671820482598,-0.6538751040268672,0.921019961525137,0.46697346130118594,-0.21107954064995052,0.9222853760495522,0.11059328266881821,0.11228063435547395,0,1,0
0.42084168336673344,0.42286196865916365,-0.6904925911717174,0.9296411993160963,0.4310618895479696,-0.19131254774814438,0.9883496450903082,0.10508437008067315,0.10635028515116368,0,1,0
0.4408817635270541,0.4084158782865566,-0.7223045186303519,0.9373927693416609,0.38757850127823107,-0.1705644635918853,1.037404207812956,0.10041968228110013,0.10129699223879954,0,1,0
0.4609218436873747,0.3934225818369858,-0.7496648224785396,0.9441469282289012,0.3377079443620146,-0.14914850031727037,1.0707981637307453,0.09765201982575498,0.09821463640157979,0,1,0
0.48096192384769537,0.3779586068113382,-0.7731987512823807,0.9498308626600249,0.28419672155618675,-0.1273180255033669,1.0915237406951732,0.09562141216451349,0.0959003677893769,0,1,0
0.501002004008016,0.3620955733252192,-0.7931516743059502,0.9543923633596293,0.22807503498021897,-0.10530096652843118,1.1008529487467849,0.09435680171330477,0.09439764605668742,0,1,0
0.5210420841683366,0.3459006373482892,-0.8097467988465005,0.9578009316417203,0.17042841410454868,-0.0832882436799912,1.1006361424220004,0.09434793117693209,0.09418288479847817,0,1,0
0.5410821643286573,0.3294358106638827,-0.823241334220324,0.9600620949854736,0.11305816718766169,-0.06144451852179897,1.0921862579096115,0.09369855847986927,0.09334500880885362,0,1,0
0.561122244488978,0.31276457494041743,-0.8335617861732639,0.9611613564273589,0.05496307209426695,-0.03992012653730925,1.0762195992244856,0.09566120534922816,0.09514133940292159,0,1,0
0.5811623246492986,0.29594424133039854,-0.8410166805009438,0.961160373861123,-4.912831179732652e-05,-0.018847282462942032,1.0536422037183613,0.10003380353350759,0.09934216741343231,0,1,0
0.6012024048096192,0.2790307994472794,-0.8456720941559592,0.9601907575957193,-0.04848081327018382,0.0016377546985282057,1.0242518580735118,0.10600129646197813,0.10513151296672821,0,1,0
0.6212424849699398,0.2620834008837624,-0.8473699281758491,0.9584299120265085,-0.08804227846053646,0.021393937557051962,0.9878091429261879,0.11284867277492543,0.11180079745385023,0,1,0
0.6412825651302605,0.24516656133131506,-0.8458419776223677,0.9560798110657555,-0.11750504803765308,0.0402805665344934,0.9443314488720717,0.1199851370361175,0.11876578857617195,0,1,0
0.6613226452905812,0.22835047803053202,-0.8408041650391523,0.9533494370343427,-0.13651870157063795,0.05816251322507333,0.8940973345289961,0.1269435277058162,0.12556556362968666,0,1,0
0.6813627254509018,0.21170995078767568,-0.8320263621428163,0.9504409489285274,-0.1454244052907697,0.07491516878194007,0.8376327778433377,0.13336648593055112,0.13184816876386057,0,1,0
0.7014028056112224,0.19532237802014976,-0.8193786383762957,0.9475392149383435,-0.1450866995091938,0.09042871286602157,0.775677204204075,0.13899564932432235,0.13735957301293455,0,1,0
0.721442885771543,0.1792652517459388,-0.8028563137105481,0.9448044020657986,-0.13674064362724106,0.10461151576288451,0.7091401448431462,0.1436611574674422,0.141932997862036,0,1,0
0.7414829659318637,0.16361351780320516,-0.7825866971366818,0.94236729588763,-0.12185530890842947,0.11739253770432097,0.6390510970718237,0.14727158056606224,0.1454787792410117,0,1,0
0.7615230460921844,0.1484370999005584,-0.7588208951323375,0.9403270162176758,-0.10201398349771051,0.1287226767309505,0.5665069513314736,0.14980352852116804,0.1479740031074578,0,1,0
0.781563126252505,0.1337988097051762,-0.7319145097691084,0.9387507747704709,-0.07881207236024694,0.1385750903766598,0.4926206822854654,0.15129079241588178,0.14945175672108885,0,1,0
0.8016032064128256,0.1197527851937341,-0.7023012255721056,0.9376753063926969,-0.05377341888869461,0.1469445821392359,0.418474588128805,0.1518130523503116,0.14999001010448176,0,1,0
0.8216432865731462,0.10634352204256364,-0.670463157558523,0.9371095996026857,-0.028285339500558837,0.15384619365642901,0.3450805758596547,0.15148439234204852,0.14970034757002454,0,1,0
0.8416833667334669,0.09360549413662406,-0.6369013952969791,0.9370385585486848,-0.003552052700045622,0.15931317676837947,0.27334915559752243,0.1504419821779136,0.148716888003514,0,1,0
0.8617234468937875,0.08156330426393107,-0.6021094936346489,0.937427247622975,0.019434453714511444,0.16339453606199975,0.20406796468101784,0.1488353518862318,0.14718579958810746,0,1,0
0.8817635270541082,0.07023226774500227,-0.5665518259464405,0.938225401087214,0.03990767321194928,0.1661523331209738,0.13788985294870215,0.14681668655672833,0.1452558187807281,0,1,0
0.9018036072144289,0.05961931091887163,-0.5306478413065318,0.93937192121157,0.05732600621779986,0.16765893025220624,0.07532985656162133,0.14453252693204693,0.143070144169217,0,1,0
0.9218436873747494,0.04972406185298051,-0.4947624532945561,0.9407991372350121,0.07136080117210612,0.16799432642984877,0.01676980888212628,0.14211722772861946,0.1407600465505515,0,1,0
0.9418837675350701,0.04054001981360747,-0.45920210196865213,0.942436652687541,0.08187577262644512,0.16724370490954513,-0.03753107601518322,0.13968838617051207,0.13844040187659354,0,1,0
0.9619238476953907,0.03205570901860352,-0.4242155397501973,0.9442146666541509,0.08890069833049666,0.16549531926987765,-0.0874192819833728,0.13734434479481888,0.13620722597522447,0,1,0
0.9819639278557114,0.024255746857559757,-0.3899981080521883,0.9460667127808428,0.09260230633459489,0.16283876094750754,-0.13282791611850264,0.13516953274800414,0.134143003927949,0,1,0
1.002004008016032,0.01712181168761756,-0.35669675849710974,0.9479319853896636,0.09326363044104258,0.15936339000559024,-0.17376854709586714,0.13320866250752803,0.13229094055863175,0,1,0
1.0220440881763526,0.01063335911656316,-0.32442262855272,0.9497565092386258,0.09122619244810708,0.15515710936313212,-0.21031403212290514,0.13150545658248178,0.13069371593423348,0,1,0
1.0420841683366733,0.004768265980484933,-0.2932546568039114,0.9514942921995961,0.08688914804851795,0.15030551468314848,-0.24257973399918148,0.13008077244685187,0.1293714251815533,0,1,0
1.062124248496994,-0.0004967069555242417,-0.26324864680045873,0.9531078221971633,0.08067649987835561,0.1448912716640247,-0.27071215095618717,0.12894098278449903,0.1283299595137587,0,1,0
1.0821643286573146,-0.005185585180137398,-0.23444391123065783,0.9545681549891551,0.07301663959959312,0.13899372114830344,-0.2948775257860646,0.12808058217222903,0.12756352835398171,0,1,0
1.1022044088176353,-0.009322959594122979,-0.20686872069927897,0.9558546677857852,0.0643256398315055,0.13268864405580358,-0.315253854624995,0.12747896890085147,0.127051383940065,0,1,0
1.122244488977956,-0.012933872718783213,-0.1805456562330117,0.9569543823349297,0.054985727457225325,0.12604814001534786,-0.3320252020227842,0.12712945595180736,0.1267867774924984,0,1,0
1.1422845691382766,-0.016043677496478385,-0.15549023888475857,0.9578617066466739,0.045366215587211066,0.11914057550659349,-0.34537822543771934,0.12699551466259174,0.12673317508396992,0,1,0
1.1623246492985972,-0.018678037280728168,-0.13171798921248912,0.9585773092981159,0.03578013257209833,0.1120305789712155,-0.35549982676890024,0.12704818816068944,0.12686163450481971,0,1,0
1.1823647294589177,-0.020862899004008385,-0.10924308616401085,0.9591072227320709,0.026495671697751716,0.10477905336247902,-0.36257628043682144,0.12725725013109915,0.12714195162923006,0,1,0
1.2024048096192383,-0.022624469546848675,-0.08807852714201446,0.9594619150643623,0.017734616614569366,0.09744319598266446,-0.36679286899072605,0.12759237893048628,0.12754382223289784,0,1,0
1.222444889779559,-0.023989185087528515,-0.06823577703399195,0.9596553641706178,0.009672455312777415,0.0900765155678666,-0.36833402073989496,0.12802415546333754,0.12803783539901667,0,1,0
1.2424849699398797,-0.02498366648689453,-0.04972406996830067,0.9597041630458075,0.002439943759488203,0.08272884286802534,-0.36738363499206317,0.12852481971981514,0.1285962300872813,0,1,0
1.2625250501002003,-0.025634656975380827,-0.03254952442431483,0.959626678616474,-0.0038742214666786425,0.07544633458977881,-0.36412541391232645,0.1290688342773532,0.12919346167505405,0,1,0
1.282565130260521,-0.025968941039815993,-0.016714203221758338,0.9594422807011249,-0.009219895767452083,0.0682714729893805,-0.35874308001991567,0.12963328044365033,0.12980660299051197,0,1,0
1.3026052104208417,-0.026013245549286315,-0.002215225473516066,0.9591706530952517,-0.013581380293661429,0.06124306489218868,-0.3514204048595914,0.13019811676739707,0.13041560864957,0,1,0
1.3226452905811623,-0.025794126507264738,0.010955952101078822,0.9588311954377233,-0.016972882876419817,0.05439624467036516,-0.342341011091175,0.1307462926868575,0.1310034358302258,0,1,0
1.342685370741483,-0.02533784798158438,0.022813926284017867,0.9584425186527402,-0.019433839249153546,0.047762486755314346,-0.33168789575254065,0.13126378756656645,0.13155609327752726,0,1,0
1.3627254509018036,-0.024670251119080375,0.03337984312520022,0.958022030884592,-0.021024388407411474,0.041369635539619115,-0.31964256078476216,0.13173958066960872,0.13206260948744344,0,1,0
1.3827655310621243,-0.02381661594251246,0.04268175882839581,0.9575856164407349,-0.021820722192856266,0.035241951120210564,-0.306384220970427,0.1321654941635194,0.1325148729753399,0,1,0
1.4028056112224447,-0.02280152445041321,0.05075457460496252,0.9571474035127988,-0.021910646396806233,0.029400168590858533,-0.2920891264676012,0.1325359942423026,0.13290743745990913,0,1,0
1.4228456913827654,-0.021648729803939046,0.05763973232370825,0.9567196140026843,-0.021389475505722004,0.023861574048008025,-0.27692972714252534,0.13284796378163335,0.1332372977493283,0,1,0
1.442885771543086,-0.020381035209536998,0.06338472972010249,0.9563124880872036,-0.02035629577404016,0.018640099818725837,-0.2610737114641095,0.1331004449053126,0.13350363369189056,0,1,0
1.4629258517034067,-0.019020185408068057,0.06804249007344702,0.9559342752352326,-0.018910642598554284,0.013746439952724527,-0.24468299330006515,0.1332943593864752,0.13370753032834207,0,1,0
1.4829659318637274,-0.017586772968044513,0.07167062200117712,0.955591282702402,-0.017149626641524505,0.009188185726452112,-0.2279127113136208,0.13343221604709932,0.1338516837286827,0,1,0
1.503006012024048,-0.016100160855827165,0.07433060561086739,0.9552879721414079,-0.015165528049703104,0.00496997986977067,-0.21091029283407223,0.13351781402765975,0.13394010170069773,0,1,0
1.5230460921843687,-0.014578422056170954,0.07608693998281052,0.9550270948742727,-0.01304386335675831,0.001093687440994179,-0.19381462143882452,0.13355595014074528,0.13397780787807417,0,1,0
1.5430861723446894,-0.013038296375729352,0.07700628402208007,0.9548098565517888,-0.010861916124191654,-0.0024414192738094957,-0.17675533574018373,0.13355213768811036,0.13397055683380418,0,1,0
1.56312625250501,-0.011495164004816285,0.07715661854565331,0.9546361023431562,-0.008687710431630698,-0.0056384647991692865,-0.15985227626798962,0.1335123431655995,0.1339245668771978,0,1,0
1.5831663326653307,-0.00996303495461765,0.07660645250993174,0.9545045144197366,-0.0065793961709798435,-0.008502766560243338,-0.1432150880537025,0.13344274662131653,0.1338462764981559,0,1,0
1.6032064128256511,-0.008454553135446756,0.0754240909585447,0.9544128142943032,-0.004585006271665509,-0.011041626133771465,-0.1269429786764062,0.13334952733224711,0.13374212628671328,0,1,0
1.6232464929859718,-0.006981013595848933,0.07367697697989116,0.9543579634235497,-0.0027425435376765965,-0.013264118636048088,-0.11112462511383112,0.13323868120123658,0.1336183728470017,0,1,0
1.6432865731462925,-0.005552391296311704,0.07143111497686146,0.9543363565122841,-0.001080345563282971,-0.015180882999028368,-0.09583821814901453,0.13311587041516737,0.13348093534152294,0,1,0
1.6633266533066131,-0.004177379734538221,0.06875057808867412,0.9543440029954917,0.00038232416038174615,-0.016803915586543598,-0.08115162937576136,0.13298630242563175,0.1333352717777651,0,1,0
1.6833667334669338,-0.0028634377556352652,0.06569709894514779,0.9543766931137335,0.0016345059120927616,-0.018146369264629137,-0.06712268390427677,0.13285464396905827,0.1331862907703391,0,1,0
1.7034068136272544,-0.0016168429578624747,0.06232973988863952,0.9544301460934378,0.0026726489852142085,-0.019222359690573117,-0.053799521297199185,0.1327249568862255,0.13303828555107453,0,1,0
1.723446893787575,-0.00044275021983422743,0.05870463690141236,0.9545001386348473,0.003499627070476892,-0.020046780227204686,-0.04122102683157863,0.13260066238948312,0.13289489683405856,0,1,0
1.7434869739478958,0.0006547459789066545,0.0548748099370441,0.9545826127862749,0.0041237075713777115,-0.020635126564985937,-0.029417316889062746,0.13248454275590849,0.13275911349324845,0,1,0
1.7635270541082164,0.0016725466035374835,0.05089003123154145,0.9546737634142289,0.00455753139770282,-0.021003331827796592,-0.018410263140532807,0.13237874841585393,0.13263327899290872,0,1,0
1.783567134268537,0.0026084814793168585,0.04679674378896875,0.9547701056511739,0.004817111847252111,-0.021167612655558464,-0.008214041388093713,0.13228482734702643,0.13251912039140404,0,1,0
1.8036072144288577,0.003461241919795237,0.04263802202391891,0.954868523367518,0.004920885817202924,-0.021144326546160632,0.0011643054698918139,0.13220376673863332,0.13241778986292962,0,1,0
1.8236472945891782,0.004230313266129011,0.03845356731668867,0.954966300075707,0.004888835409449249,-0.020949840587948913,0.009724297910586169,0.13213605036152054,0.1323299221397739,0,1,0
1.8436873747494988,0.004915907902951199,0.034279731841109384,0.9550611341325597,0.004741702842628439,-0.020600414311822298,0.017471313806330435,0.13208171430822382,0.13225569202826268,0,1,0
1.8637274549098195,0.005518899210200611,0.030149565362470623,0.9551511400695365,0.004500296848839819,-0.020112090293125006,0.024416200934864556,0.13204041243989548,0.1321948785075835,0,1,0
1.8837675350701402,0.006040756804952554,0.026092879737597115,0.9552348381065212,0.0041849018492340975,-0.019500593632630757,0.0305748330247125,0.13201148345038133,0.13214693107013864,0,1,0
1.9038076152304608,0.006483483366556609,0.022136328080202747,0.9553111339457905,0.003814791963465075,-0.018781243051033455,0.035967529079865085,0.1319940158177804,0.13211103555342685,0,1,0
1.9238476953907815,0.006849553289223168,0.01830349613332797,0.9553792908874543,0.003407847083190601,-0.017968872884202743,0.040618508341535554,0.1319869100949664,0.13208617721725177,0,1,0
1.9438877755511021,0.00714185335882687,0.014615003480185086,0.9554388962107633,0.00298026616544997,-0.01707776533967795,0.04455537722623928,0.13198893754473823,0.13207120009358,0,1,0
1.9639278557114228,0.007363625615824069,0.011088612849859965,0.9554898236402688,0.0025463714752749665,-0.01612159243113385,0.047808645427205115,0.13199879351289528,0.13206486101882745,0,1,0
1.9839679358717435,0.00751841254131143,0.007739346274368061,0.9555321935439466,0.002118495183889503,-0.015113367050979518,0.05041126900771661,0.13201514506189216,0.13206587788427337,0,1,0
2.004008016032064,0.007610004685091833,0.004579607189020151,0.9555663323256789,0.001706939086617335,-0.014065402674570404,0.052398218820455686,0.13203667221850665,0.13207297146911082,0,1,0
2.024048096192385,0.007642390840999802,0.0016193077953984172,0.9555927322719396,0.0013199973130360683,-0.012989281214278682,0.05380607301458613,0.13206210269101906,0.13208490072093637,0,1,0
2.0440881763527052,0.007619710863999817,-0.001133998849999241,0.9556120129060997,0.0009640317079988332,-0.01189582855925736,0.05467263275106617,0.132090240060862,0.13210049149576175,0,1,0
2.064128256513026,0.007546211262305497,-0.003674980084715989,0.9556248846787422,0.000643588632127746,-0.010795097348870882,0.05503656051932385,0.13211998596732855,0.13211865921442342,0,1,0
2.0841683366733466,0.0074262038132033035,-0.006000372455109707,0.955632115731837,0.00036155265474258774,-0.009696356589480953,0.05493703796949648,0.13215035566665576,0.1321384246716477,0,1,0
2.1042084168336674,0.0072640267590284415,-0.008108852708743081,0.9556345021676373,0.00011932179001506428,-0.00860808790217311,0.054413434365392234,0.13218048758854942,0.1321589246708097,0,1,0
2.124248496993988,0.007064008809209538,-0.010000897490945184,0.9556328420247228,-8.300714572935183e-05,-0.0075379875269207435,0.053505018762618206,0.132209649456211,0.13217941877160663,0,1,0
