time,x,x_dot,z,z_dot,theta,theta_dot,u1,u2,x_ref,z_ref,theta_ref
0.0,-0.638733817551661,-0.02035264785286632,1.393832403569878,-0.01932279849706664,0.07320184921118865,0.002216183042718936,0.05632342733963201,0.05632337540087522,0,1,0
0.02004008016032064,-0.6390184825139298,-0.014233248113437139,1.3911906377091519,-0.13208829303630684,0.07324609590514018,0.0022123346975767228,0.05632337490488602,0.07755295161697788,0,1,0
0.04008016032064128,-0.6391578340104165,-0.0069675748243354565,1.3866093074925618,-0.22906651082949808,0.09027396795806968,0.8513936026464742,0.05632337491025291,0.06417158488382171,0,1,0
0.06012024048096192,-0.639166412983428,-0.00042894865057951145,1.3798928063867142,-0.33582505529238277,0.11355427703321185,1.164015453757107,0.056323375015800405,0.06169291881739189,0,1,0
0.08016032064128256,-0.6390173630144258,0.007452498450108576,1.3710047531680623,-0.44440266093260006,0.14108875355600276,1.3767238261395465,0.05632337794669472,0.05848744592659354,0,1,0
0.1002004008016032,-0.638675755507995,0.017080375321540178,1.3598969174113298,-0.5553917878366182,0.17030147475522828,1.460636059961275,0.05632337491602533,0.05632337616240587,0,1,0
0.12024048096192384,-0.638099898860936,0.02879283235295217,1.346535163915515,-0.6680876747907437,0.19945669094298762,1.457760809387972,0.05652689108368154,0.05632337491214482,0,1,0
0.1402805611222445,-0.6372414657273128,0.04292165668115935,1.3309189181738834,-0.7808122870815826,0.22839183866175583,1.4467573859384073,0.058492073900743236,0.05632337491723751,0,1,0
0.16032064128256512,-0.6360472316539357,0.05971170366884966,1.3130721816712565,-0.8923368251313494,0.25553611611453,1.3572138726387077,0.05977649579389508,0.056323374906390486,0,1,0
0.18036072144288576,-0.6344653801962908,0.07909257288224683,1.2930078240609104,-1.0032178805173089,0.27986772713915326,1.2165805512311674,0.06072560683611357,0.05632337502151423,0,1,0
0.2004008016032064,-0.6324477597598116,0.10088102182396119,1.270733421543774,-1.1137201258568221,0.3006354492025428,1.038386103169476,0.157109283853642,0.1520000384203804,0,1,0
0.22044088176352705,-0.6291685982525695,0.16395807536210183,1.2489779878598002,-1.087771684198695,0.3172827902230677,0.8323670510262429,0.22715787895695955,0.2198393546888206,0,1,0
0.24048096192384769,-0.6239339378048987,0.261733022383545,1.2296642708594592,-0.9656858500170512,0.32805171986420595,0.5384464820569108,0.27121630445242134,0.26264492250598653,0,1,0
0.2605210420841683,-0.6162401394843658,0.3846899160266408,1.2139757517628267,-0.7844259548316219,0.3319506876158488,0.1949483875821479,0.25376730781348067,0.2449697058535627,0,1,0
0.280561122244489,-0.6061772411768129,0.5031449153776464,1.2013854199943867,-0.6295165884220008,0.32880790004367083,-0.1571393786089022,0.2163665043295085,0.20872372728377125,0,1,0
0.3006012024048096,-0.5940765587359966,0.6050341220408156,1.190847112979922,-0.5269153507232394,0.31955383034485096,-0.462703484940988,0.18721059050351174,0.1809770416308338,0,1,0
0.32064128256513025,-0.5802319411925861,0.6922308771705243,1.181566416488362,-0.4640348245780119,0.30532396384510135,-0.7114933249874851,0.16441333267052494,0.15942712054827415,0,1,0
0.3406813627254509,-0.5649004856175481,0.7665727787519002,1.1729340912211994,-0.43161626335812875,0.28712501495896786,-0.9099474443066755,0.14607918447096455,0.14217600803061936,0,1,0
0.3607214428857715,-0.548308379520394,0.8296053048577035,1.1644676845916453,-0.42332033147770576,0.2658318492299284,-1.0646582864519654,0.13289433143491272,0.12990120423441992,0,1,0
0.3807615230460922,-0.5306393516576311,0.8834513931381448,1.1558282440650594,-0.4319720263292994,0.24217989504029314,-1.182597709481766,0.12141635396653976,0.11921176013685868,0,1,0
0.4008016032064128,-0.5120618279603494,0.9288761848640854,1.1467221546548125,-0.4553044705123367,0.21680605723691168,-1.268691890169074,0.11410723961566215,0.1124757388019243,0,1,0
0.42084168336673344,-0.4927095181024872,0.9676154928931084,1.1369697115369861,-0.4876221558913204,0.19017349125974667,-1.3316282988582486,0.10764939171461906,0.10652590332455937,0,1,0
0.4408817635270541,-0.47270692332980624,1.0001297386340482,1.126412210618704,-0.5278750459141065,0.16269213109942277,-1.3740680080161978,0.10375079028292893,0.10303695156261995,0,1,0
0.4609218436873747,-0.4521593318954569,1.0273795717174685,1.1149609984514208,-0.572560608364157,0.13469210968607606,-1.4000010706673345,0.10138151568357745,0.10103816668398055,0,1,0
0.48096192384769537,-0.43116177883139506,1.049877653203092,1.1025689321744225,-0.6196033138499103,0.10647127680432317,-1.4110416440876432,0.1035429839704961,0.10352646339523416,0,1,0
0.501002004008016,-0.409789555780036,1.0686111525679538,1.0893187756163714,-0.6625078279025582,0.07829166600633812,-1.4089805398992539,0.10897273948416066,0.10927547205352918,0,1,0
0.5210420841683366,-0.3881123235792235,1.0838616100406266,1.0753875444482655,-0.6965615584052928,0.05040845241740579,-1.3941606794466161,0.11666372843510711,0.11727988648037156,0,1,0
0.5410821643286573,-0.36620370759371745,1.0954307992753005,1.061017032077055,-0.7185256185605289,0.023071379172133425,-1.3668536622636187,0.12569389552017968,0.12661660629081067,0,1,0
0.561122244488978,-0.3441472360693332,1.1028235762192127,1.0464862623589954,-0.7265384859029703,-0.0034760389815250035,-1.3273709076829212,0.13529384239311099,0.13651176089128858,0,1,0
0.5811623246492986,-0.3220388181409034,1.1054208964214896,1.0320881471653567,-0.7199057596819431,-0.02900003710536649,-1.2761999061920746,0.14482140877165695,0.14631712246996745,0,1,0
0.6012024048096192,-0.2999864115174432,1.1026203311730105,1.0181098827251625,-0.6989132220097077,-0.05328137584045218,-1.2140669367542842,0.1537560853302711,0.15550542660398112,0,1,0
0.6212424849699398,-0.27810752727420124,1.0939442121620975,1.0048171250311964,-0.6646378846983041,-0.07612064568288116,-1.141963492121449,0.16169232429080813,0.16366462280170788,0,1,0
0.6412825651302605,-0.256525250724869,1.079113827466614,0.9924418761965915,-0.6187624417302391,-0.09734335151962693,-1.0611352918372867,0.1683330458087284,0.1704920877809337,0,1,0
0.6613226452905812,-0.23536344611645021,1.0580902304209376,0.9811739385539766,-0.5633968821307455,-0.11680421844620285,-0.9730433463287965,0.1734849716601872,0.17579043588609156,0,1,0
0.6813627254509018,-0.21474176814981125,1.0310838983319486,0.9711557750902164,-0.5009081731880097,-0.1343903455296072,-0.8793063541702186,0.1770502507012435,0.17945943987998444,0,1,0
0.7014028056112224,-0.19477101296586974,0.9985377591970749,0.9624804501401846,-0.4337662475015925,-0.15002297952440313,-0.7816316997397963,0.17901785488025077,0.18148749964196242,0,1,0
0.721442885771543,-0.1755492239150867,0.9610894525391509,0.9551922841572792,-0.3644082991452706,-0.1636578578403606,-0.6817439157978687,0.17945276506398,0.18194076188745245,0,1,0
0.7414829659318637,-0.15715882821798036,0.919519784855317,0.9492897820367551,-0.29512510602620634,-0.17528417941346622,-0.5813160786552829,0.1784835849476405,0.1809505432872349,0,1,0
0.7615230460921844,-0.13966493771577496,0.8746945251102696,0.9447303596724862,-0.227971118213444,-0.1849223597871702,-0.48190901868519903,0.17628882443169752,0.178699339242855,0,1,0
0.781563126252505,-0.12311481367399803,0.8275062020888462,0.9414363809832403,-0.16469893446229222,-0.19262079155582207,-0.3849215884325953,0.17308231535680665,0.17540590978970044,0,1,0
0.8016032064128256,-0.10753838394221368,0.778821486589217,0.9393020265875516,-0.10671771978443578,-0.19845187348251597,-0.29155409633469176,0.1690983147716486,0.17131002338621848,0,1,0
0.8216432865731462,-0.0929496185328154,0.7294382704699138,0.9382005410889146,-0.05507427493185129,-0.2025075936719832,-0.2027860094733625,0.16457699114337393,0.16665757841229195,0,1,0
0.8416833667334669,-0.07934852091312958,0.6800548809842912,0.9379914468359456,-0.010454712648449042,-0.20489495520490336,-0.11936807664601112,0.1597510927642619,0.16168692792791917,0,1,0
0.8617234468937875,-0.06672347713975703,0.6312521886686275,0.9385273674951362,0.02679603295952937,-0.20573151515122673,-0.041827997316168514,0.1548345609996038,0.1566171976406442,0,1,0
0.8817635270541082,-0.0550537195269427,0.5834878806407167,0.9396601725886852,0.05664025467744817,-0.20514126904249338,0.02951230543666765,0.15001369144596416,0.15163922366015062,0,1,0
0.9018036072144289,-0.04431169886109033,0.5371010332926186,0.9412462305577113,0.07930289845130371,-0.2032510835214337,0.09450927605298234,0.14544117722130462,0.14690947398924473,0,1,0
0.9218436873747494,-0.03446521047706125,0.492324419201454,0.94315063755177,0.09522034970293665,-0.20018791774482633,0.15315828883036642,0.14124405901859116,0.14255803719916058,0,1,0
0.9418837675350701,-0.02547924181111369,0.44929843329737784,0.9452506855624974,0.10500240053636688,-0.19607640020731562,0.20557587687553766,0.13749430675511765,0.138659119656749,0,1,0
0.9619238476953907,-0.01731732071079887,0.4080960550157411,0.947437736564609,0.10935255010557993,-0.19103700562175602,0.25196972927797967,0.13424802742249922,0.13527021160184513,0,1,0
0.9819639278557114,-0.009942587034214759,0.36873668382920544,0.94961865239815,0.10904579167705648,-0.1851849214117154,0.29260421050203245,0.1315278996499763,0.1324148080746183,0,1,0
1.002004008016032,-0.00331849116457083,0.33120479348219645,0.9517162789041762,0.10488132530130655,-0.17862937415428523,0.32777736287150844,0.12933293403460985,0.13009224217375145,0,1,0
1.0220440881763526,0.0025907974843403566,0.2954644324455593,0.9536692677370308,0.09764944164272987,-0.17147335688370666,0.3578008635289264,0.12764334278110206,0.12828271418928194,0,1,0
1.0420841683366733,0.007820210892393587,0.2614706704026615,0.9554313754007185,0.08810538318438763,-0.1638136287400197,0.38298640718434857,0.12642529750754736,0.1269521718998805,0,1,0
1.062124248496994,0.012403769685477448,0.22917793965419303,0.9569703739751523,0.07694992872168777,-0.15574088808713143,0.40363703264441614,0.12563519835595183,0.12605667847682503,0,1,0
1.0821643286573146,0.01637468029291748,0.19854553037200168,0.9582666934578549,0.06481597413513047,-0.14734003928246955,0.4200424402330907,0.1252233352099944,0.12554614781261988,0,1,0
1.1022044088176353,0.019765493328435725,0.1695406517759123,0.959311898402108,0.0522602472126569,-0.13869049315781407,0.43247730623277575,0.12513197130746911,0.1253624768630804,0,1,0
1.122244488977956,0.022608305531610275,0.1421406101587275,0.9601069389940226,0.03975202959573243,-0.12986646170930793,0.44120157242530555,0.12532085033725213,0.12546510086839885,0,1,0
1.1422845691382766,0.024934874780476114,0.11632846244329187,0.9606609218912369,0.027699144860716177,-0.12093720809476913,0.44646268072694034,0.12572778885100844,0.12579155654866267,0,1,0
1.1623246492985972,0.026776809235485838,0.09209672275048612,0.9609892434246883,0.016416076672569228,-0.1119672750212781,0.44849665367455105,0.12630357449073099,0.12629245142640694,0,1,0
1.1823647294589177,0.02816566789365167,0.06944293290829152,0.9611121083328154,0.00614324540635275,-0.10301663437546549,0.44753203229062916,0.12700235681975391,0.12692179867664896,0,1,0
1.2024048096192383,0.029133014635252395,0.04836733708003625,0.9610531515916517,-0.002947837058183538,-0.09414080273362492,0.44379158209202924,0.127782347036856,0.12763772411297822,0,1,0
1.222444889779559,0.029710424061440973,0.028870471309428904,0.9608381843887643,-0.010748360144368644,-0.08539091675411419,0.4374942989755365,0.1286062781955397,0.12840291358882913,0,1,0
1.2424849699398797,0.02992944133887188,0.01095086387154532,0.9604940783367424,-0.017205302601100144,-0.07681377856087775,0.42885690966182227,0.1294416622947465,0.12918485599890675,0,1,0
1.2625250501002003,0.029821501653286696,-0.005396984279259217,0.9600477967307643,-0.02231408029890011,-0.06845188224966006,0.4180948155608849,0.1302608716168952,0.12995590991120892,0,1,0
1.282565130260521,0.029417819431534528,-0.020184111087608467,0.9595255762431003,-0.026111024383199337,-0.06034343314294598,0.4054224553357023,0.13104110101555058,0.13069324835932924,0,1,0
1.3026052104208417,0.028749252730740013,-0.03342833503972567,0.9589522523516703,-0.02866619457150381,-0.05252237365011738,0.3910529746414302,0.13176425717419993,0.13137873855592666,0,1,0
1.3226452905811623,0.027846143447066114,-0.045155464183695045,0.9583507265149469,-0.030076291836166894,-0.045018423225507795,0.3751975212304788,0.13241668428089562,0.13199867032842041,0,1,0
1.342685370741483,0.02673814640008662,-0.055399852348974696,0.9577415706797573,-0.030457791759480213,-0.03785713007873219,0.3580646573387805,0.13298882340723603,0.13254340970161946,0,1,0
1.3627254509018036,0.025454057639025883,-0.06420443805303695,0.9571427582666767,-0.029940620654030824,-0.031059939158553904,0.3398595460089142,0.13347485214564433,0.1330070312448396,0,1,0
1.3827655310621243,0.024021649222364907,-0.07162042083304884,0.9565695099561511,-0.028662415526280214,-0.024644282138134344,0.32078285102097814,0.13387229474044476,0.13338692365344162,0,1,0
1.4028056112224447,0.022467516311296176,-0.0777066455534365,0.9560342417496437,-0.026763410325367953,-0.018623692947732872,0.30102945952007354,0.13418160534934992,0.13368337128656677,0,1,0
1.4228456913827654,0.020816941157992753,-0.08252875766517115,0.9555466019601272,-0.024381989475825573,-0.013007950154665488,0.2807871396533691,0.13440573420057156,0.1338991209711271,0,1,0
1.442885771543086,0.01909377730608387,-0.08615819259544416,0.9551135832880343,-0.021650933604647146,-0.007803245611224151,0.260235227172067,0.1345496874150339,0.13403894432992539,0,1,0
1.4629258517034067,0.017320356094025005,-0.08867106060294312,0.9547396960061683,-0.018694364093299748,-0.0030123773231775547,0.2395434144023298,0.13462009114516194,0.13410920579534386,0,1,0
1.4829659318637274,0.015517416415974988,-0.09014698390250085,0.9544271885014984,-0.015625375233489964,0.0013650365841450475,0.21887069536613007,0.1346247701520486,0.13411744598073488,0,1,0
1.503006012024048,0.013704057693044325,-0.09066793614653317,0.9541763019768189,-0.01254432623397718,0.005332326641767405,0.1983645028811179,0.13457235000169918,0.13407198918978164,0,1,0
1.5230460921843687,0.01189771517020505,-0.09031712614196381,0.9539855469608236,-0.009537750799766395,0.008895527792424083,0.17816005753283393,0.13447189109178828,0.13398158293072204,0,1,0
1.5430861723446894,0.010114155996500309,-0.089177958685237,0.9538519903707183,-0.006677829505263553,0.012063126487341945,0.1583799347458929,0.13433256052211684,0.1338550751628239,0,1,0
1.56312625250501,0.008367494071218583,-0.0873330962640863,0.9537715431416246,-0.004022361454687307,0.014845803385048222,0.13913384488531405,0.13416334499679244,0.13370113224022276,0,1,0
1.5831663326653307,0.006670221337215124,-0.0848636367001729,0.9537392397899489,-0.0016151675837871309,0.017256175636026744,0.12051861254892592,0.13397281403604785,0.13352800667358533,0,1,0
1.6032064128256511,0.005033253059991236,-0.08184841386119443,0.9537495028884461,0.0005131549248578887,0.01930854233722026,0.1026183350596754,0.13376892608680968,0.1333433471757568,0,1,0
1.6232464929859718,0.0034659846208457542,-0.07836342195727407,0.9537963868006002,0.002344195607706514,0.021018636244938677,0.08550469538592137,0.1335588829940009,0.1331540564220342,0,1,0
1.6432865731462925,0.0019763574505503017,-0.07448135851477262,0.9538737965321954,0.0038704865797622515,0.022403384316697104,0.06923740358792124,0.13334903365950088,0.13296619732801404,0,1,0
1.6633266533066131,0.0005709319105182133,-0.07027127700160442,0.953975679070993,0.005094126939883255,0.023480679117385862,0.05386474003443765,0.13314479334627777,0.1327849143179769,0,1,0
1.6833667334669338,-0.0007450348569528254,-0.06579833837355194,0.9540961850848902,0.0060253006948638175,0.024269162604115137,0.03942417433646371,0.13295064347382676,0.1326144345464544,0,1,0
1.7034068136272544,-0.001967507803036916,-0.061123647304204526,0.9542298012538575,0.00668080844836056,0.024788023377532716,0.025943038670878958,0.13277013199854418,0.13245806910641214,0,1,0
1.723446893787575,-0.003093591015236639,-0.056304160609986144,0.9543714535315277,0.007082613883511676,0.02505680801358038,0.013439231802382816,0.13260590948856682,0.13231824955122948,0,1,0
1.7434869739478958,-0.004121444108805409,-0.05139265467843851,0.9545165826847339,0.007256457660309387,0.025095246790559765,0.0019219388489697883,0.13245978581963522,0.13219658466461842,0,1,0
1.7635270541082164,-0.005050198908605392,-0.046437739989999116,0.9546611940555861,0.00723056854261052,0.02492309383355881,-0.008607647850047835,0.13233280649012488,0.13209393657443144,0,1,0
1.783567134268537,-0.005879877150082296,-0.04148391207384518,0.9548018840518656,0.00703449981397354,0.024559983854662987,-0.01815549894479113,0.13222533934576158,0.13201050575387166,0,1,0
1.8036072144288577,-0.006611309750911034,-0.03657163004143689,0.9549358461366776,0.00669810424059949,0.024025302775516275,-0.02673405395733558,0.13213716373937548,0.13194591945666576,0,1,0
1.8236472945891782,-0.007246058053818246,-0.031737415145360603,0.9550608591515778,0.006250650745011808,0.023338065472279,-0.03436186516186392,0.13206756643843742,0.1318993302952365,0,1,0
1.8436873747494988,-0.007786337324449886,-0.027013963531582003,0.9551752610328605,0.00572009406413808,0.022516807967898164,-0.0410628752190415,0.132015437231749,0.1318695105567658,0,1,0
1.8637274549098195,-0.008234942730877232,-0.022430270321367275,0.9552779108886219,0.005132492788067972,0.02157949314744343,-0.04686574102273667,0.131979360808755,0.13185494288440375,0,1,0
1.8837675350701402,-0.008595177967388871,-0.018011761825581972,0.9553681422704325,0.004511569090533171,0.020543429025432824,-0.051803206100530276,0.13195770369578536,0.13185390616559095,0,1,0
1.9038076152304608,-0.008870786642418678,-0.01378043375149032,0.9554457103056372,0.0038784017602342233,0.019425198712267094,-0.05591151565828644,0.13194869361608194,0.1318645539654783,0,1,0
1.9238476953907815,-0.00906588652553418,-0.009754994155775146,0.955510735111542,0.0032512402952415893,0.018240601322493794,-0.059229869488664925,0.13195049061522723,0.13188498482341868,0,1,0
1.9438877755511021,-0.00918490673525104,-0.005951010485842997,0.9555636436498639,0.0026454269160902616,0.01700460314477094,-0.06179990888614299,0.13196124897497144,0.13191330341436458,0,1,0
1.9639278557114228,-0.009232527944195908,-0.0023810604472433937,0.9556051118893624,0.002073411974922537,0.015731298454039474,-0.06366523453657318,0.13197916967345039,0.1319476723146447,0,1,0
1.9839679358717435,-0.009213625677777311,0.0009451133209297988,0.9556360088469045,0.0015448478771067867,0.014433879392611948,-0.06487095307137623,0.13200254337616354,0.13198635434144398,0,1,0
2.004008016032064,-0.00913321682941371,0.004020442418180082,0.9556573437566338,0.0010667454864638326,0.01312461438138239,-0.06546325056147789,0.13202978455373587,0.1320277461128233,0,1,0
2.024048096192385,-0.008996409728142571,0.006840355063556911,0.9556702174486824,0.0006436846024305176,0.01181483459779929,-0.06548898917915512,0.13205945603438918,0.13207040239915316,0,1,0
2.0440881763527052,-0.008808357224269881,0.00940262519363446,0.9556757786947117,0.00027806230146027507,0.01051492834324107,-0.06499531272791118,0.13209028498367079,0.13211305089409475,0,1,0
2.064128256513026,-0.008574212931760755,0.011707214625456368,0.955675185760688,-2.964670118265917e-05,0.009234342316864184,-0.06402930131884416,0.13212117411224633,0.13215460254378741,0,1,0
2.0841683366733466,-0.008299090893583315,0.013756101908872,0.9556695735604079,-0.0002806100140009724,0.007981589078612085,-0.062637661912605,0.13215120479141007,0.13219415420339825,0,1,0
2.1042084168336674,-0.007988028709609544,0.015553109198688585,0.9556600264791245,-0.0004773540641704842,0.006764260321182573,-0.06086643787147568,0.1321796347885067,0.1322309858694493,0,1,0
2.124248496993988,-0.007645954143667642,0.01710372829709512,0.9556475567612008,-0.0006234858961853241,0.005589045536623515,-0.05876073922795286,0.13220589137781807,0.1322645532446369,0,1,0
